con,Omega,Theta,ygross,ynet,inv,Eind,scc,carbontax,Abatement,Dam,Emissions
77.28068,0.0028556,0.00025878893,105.17594,104.8756,27.567793,32.66292,16.988617,16.920721,0.02721837,0.3003404,35.262924
79.773056,0.0031179856,0.0002626394,108.69577,108.35687,28.555357,33.18888,17.46508,17.20265,0.028547794,0.3389119,35.729767
82.36324,0.0033433603,0.0002659801,112.33112,111.95556,29.56254,33.724857,17.97467,17.466534,0.029877843,0.37556344,36.20797
85.05442,0.0035400693,0.00026971035,116.07861,115.66769,30.582066,34.26302,18.523771,17.748693,0.0313076,0.41092634,36.68967
87.84123,0.0037151386,0.0002737472,119.934074,119.488495,31.614555,34.8017,19.108767,18.045895,0.032831617,0.4455717,37.173176
90.71179,0.0038742505,0.00027799312,123.893745,123.41375,32.66765,35.33943,19.72082,18.354294,0.03444161,0.4799954,37.656986
93.65796,0.0040218807,0.0002823373,127.95571,127.441086,33.747143,35.875675,20.358809,18.66945,0.03612667,0.5146226,38.14053
96.68995,0.0041615027,0.00028746374,132.12297,131.57315,34.84537,36.405746,21.02439,19.019285,0.03798056,0.5498301,38.619106
99.80452,0.0042957757,0.00029347072,136.39258,135.80669,35.962296,36.92713,21.716063,19.407934,0.040027227,0.585912,39.090164
102.99834,0.004426711,0.00030057615,140.76201,140.1389,37.098446,37.436726,22.432076,19.844282,0.042309705,0.6231128,39.550575
106.269295,0.004555818,0.00030876233,145.22902,144.56737,38.25344,37.933403,23.171677,20.327429,0.04484125,0.66163695,39.99919
109.61572,0.0046842145,0.00031797917,149.79161,149.08997,39.42683,38.416077,23.934155,20.85519,0.04763061,0.70165604,40.43489
113.03632,0.0048127193,0.00032819717,154.44844,153.70512,40.61837,38.884216,24.71893,21.426003,0.05068954,0.743317,40.857132
116.53012,0.004941924,0.00033939342,159.19833,158.41158,41.827705,39.336945,25.525621,22.038662,0.054030865,0.7867461,41.265
120.096306,0.005072252,0.00035155666,164.04031,163.20827,43.05458,39.77386,26.3539,22.692263,0.05766947,0.83205384,41.65808
123.73441,0.0052039935,0.0003646762,168.97394,168.0946,44.29888,40.19429,27.203531,23.386051,0.06162078,0.87933934,42.035664
127.444214,0.0053373463,0.00037875338,173.99884,173.07013,45.560383,40.598007,28.074408,24.11958,0.06590264,0.9286921,42.397514
131.22551,0.005472431,0.00039378865,179.1148,178.13461,46.838947,40.984398,28.966442,24.892538,0.07053338,0.98019344,42.742985
135.07841,0.005609319,0.00040979066,184.32175,183.28781,48.134293,41.35335,29.87967,25.704742,0.07553334,1.0339195,43.071953
139.00264,0.005748036,0.00042692042,189.61984,188.5299,49.446774,41.703243,30.814335,26.562033,0.080952585,1.0899417,43.382767
142.99768,0.005888579,0.0004450563,195.00829,193.85997,50.776,42.034702,31.769995,27.459171,0.08678967,1.1483217,43.676044
147.06361,0.0060309223,0.00046415592,200.48695,199.27785,52.121723,42.347847,32.74648,28.394148,0.09305721,1.2091212,43.951866
151.20085,0.0061750202,0.00048431635,206.05667,204.78426,53.484222,42.64189,33.744442,29.370245,0.09979661,1.272404,44.20944
155.40613,0.006320816,0.0005057526,211.71725,210.37903,54.866505,42.91527,34.76455,30.394981,0.10707657,1.3382258,44.447174
159.65862,0.0064682416,0.00052806607,217.46745,216.06082,56.288116,43.170216,35.805744,31.453196,0.114837185,1.4066321,44.667286
163.9782,0.0066172215,0.00055130164,223.30724,221.82954,57.72905,43.406563,36.86756,32.546238,0.12310964,1.4776734,44.8696
168.3672,0.0067676757,0.00057550444,229.23721,227.6858,59.187584,43.623768,37.950188,33.67565,0.13192704,1.5514032,45.053535
172.82663,0.0069195195,0.0006007195,235.25867,233.6308,60.66384,43.82195,39.05401,34.842743,0.14132446,1.6278769,45.21921
177.35738,0.0070726704,0.0006269839,241.3726,239.66544,62.157784,44.000717,40.179478,36.04872,0.15133673,1.7071488,45.366207
181.95345,0.0072270366,0.00065455056,247.57983,245.79056,63.67623,44.158665,41.32288,37.302166,0.16205353,1.7892685,45.493107
186.60843,0.0073825317,0.00068365026,253.88083,252.00655,65.225845,44.294228,42.48031,38.610752,0.17356569,1.8742833,45.598328
191.33488,0.007539063,0.0007138887,260.27563,258.31342,66.79412,44.410126,43.659283,39.960255,0.18580782,1.9622343,45.68457
196.1265,0.0076965294,0.0007454338,266.76535,264.7122,68.38838,44.505367,44.85794,41.35629,0.19885592,2.0531676,45.75083
200.97212,0.007854832,0.0007785313,273.35077,271.20364,70.02036,44.5785,46.072968,42.806892,0.21281214,2.1471243,45.795647
205.88994,0.008013874,0.0008128719,280.03232,277.7882,71.672455,44.631706,47.3099,44.301174,0.2276304,2.2441437,45.82118
210.88057,0.008173549,0.0008485912,286.81104,284.46677,73.3448,44.66422,48.57073,45.843548,0.24338533,2.3442638,45.826645
215.94315,0.008333756,0.0008855195,293.68576,291.23825,75.03718,44.67694,49.85365,47.428226,0.26006445,2.4475052,45.81294
221.0785,0.008494394,0.0009236677,300.65744,298.10355,76.7497,44.67008,51.158695,49.05545,0.27770758,2.5539029,45.780243
226.28755,0.00865536,0.0009630681,307.72733,305.0638,78.482445,44.643517,52.486362,50.72636,0.29636237,2.6634908,45.728443
231.57123,0.008816556,0.0010037427,314.8964,312.1201,80.23557,44.597324,53.83706,52.441624,0.31607497,2.7763019,45.65758
236.92078,0.008977887,0.0010452829,322.16565,319.27325,82.018776,44.534092,55.201954,54.18824,0.33675426,2.892367,45.57024
242.33586,0.009139253,0.0010875151,329.52914,326.51752,83.82656,44.45407,56.583515,55.96103,0.35836792,3.0116503,45.46666
247.81963,0.009300561,0.0011304871,336.9859,333.85175,85.6547,44.35678,57.984993,57.762005,0.3809582,3.134158,45.346348
253.37167,0.009461722,0.0011743138,344.53784,341.27792,87.505486,44.241924,59.406788,59.59514,0.40459555,3.2599213,45.208996
258.98523,0.009622656,0.0012193624,352.18698,348.798,89.38747,44.10753,60.84876,61.472324,0.42944357,3.3889742,45.052605
264.6726,0.009783273,0.0012653926,359.93604,356.4147,91.29106,43.955544,62.313103,63.386208,0.45546043,3.5213523,44.87913
270.43152,0.00994348,0.0013125608,367.78613,364.12903,93.21958,43.78517,63.799767,65.34195,0.48274162,3.657074,44.68776
276.25876,0.010103192,0.0013613295,375.74112,371.94495,95.17984,43.59434,65.309425,67.35392,0.51150745,3.7961843,44.476406
282.16986,0.010262324,0.0014117234,383.80817,379.86942,97.16327,43.383923,66.8462,69.42281,0.54183096,3.9387636,44.245937
288.15482,0.010420774,0.0014641418,391.98737,387.90256,99.17982,43.15162,68.41809,71.56084,0.5739251,4.084812,43.99403
294.2183,0.010578448,0.0015179589,400.27576,396.04144,101.221954,42.900795,70.01508,73.748985,0.6076021,4.2342963,43.72405
300.35785,0.010735247,0.0015730043,408.67096,404.28378,103.28995,42.632126,71.63006,75.98251,0.6428412,4.3871837,43.43666
306.57053,0.010891067,0.0016286336,417.16666,412.62326,105.380714,42.348526,73.26713,78.24265,0.67941165,4.54339,43.13477
312.87112,0.011045811,0.0016855998,425.76468,421.06174,107.48087,42.046078,74.93399,80.552376,0.71766883,4.702916,42.81444
319.24466,0.011199396,0.0017435603,434.46243,429.5967,109.60301,41.726658,76.62307,82.90181,0.7575115,4.865717,42.47755
325.69263,0.011351732,0.0018021401,443.26392,438.2321,111.749695,41.392498,78.334694,85.28072,0.79882365,5.0318127,42.126316
332.21985,0.011502728,0.0018599896,452.17145,446.97028,113.919075,41.051033,80.07026,87.65045,0.84103423,5.2012057,41.76817
338.81918,0.011652307,0.0019178976,461.18616,455.8123,116.118904,40.698112,81.82174,90.03499,0.88450783,5.373883,41.398945
345.4917,0.011800406,0.0019757024,470.30118,464.75146,118.341545,40.33397,83.594894,92.430466,0.92917514,5.5497446,41.018867
352.23856,0.0119469715,0.002033428,479.51816,473.78937,120.58742,39.958744,85.39022,94.83826,0.9750656,5.72879,40.628063
359.06152,0.012091941,0.0020911044,488.83896,482.92798,122.856606,39.572327,87.20858,97.26017,1.0222133,5.911012,40.22643
365.96216,0.012235274,0.0021487568,498.26566,492.16922,125.14949,39.174877,89.05064,99.69757,1.0706517,6.096416,39.814106
372.94107,0.012376914,0.0022063663,507.79898,501.514,127.466385,38.766724,90.91648,102.15043,1.1203905,6.2849846,39.39142
379.99948,0.01251681,0.0022639262,517.4408,510.96405,129.80785,38.34797,92.80679,104.61937,1.1714478,6.4767075,38.958466
387.13828,0.012654921,0.0023214107,527.1917,520.52014,132.17357,37.918793,94.72207,107.10443,1.2238284,6.6715693,38.5154
394.35745,0.012791194,0.002378872,537.0533,530.1837,134.56505,37.47927,96.66229,109.607414,1.2775809,6.8695526,38.062313
401.65186,0.012925584,0.0024369035,547.0265,539.9558,136.98816,37.026558,98.62748,112.14593,1.3330508,7.0706363,37.596348
409.0366,0.013058041,0.002495734,557.1155,549.84064,139.43173,36.559937,100.624435,114.72693,1.390412,7.274837,37.116768
416.50385,0.013188514,0.002554422,567.31506,559.833,141.89908,36.08373,102.647995,117.32435,1.449162,7.482043,36.6279
424.05203,0.013316943,0.0026125384,577.62476,569.93256,144.39151,35.60005,104.696526,119.92665,1.5090667,7.692196,36.13185
431.6817,0.013443272,0.0026700732,588.0454,580.14014,146.90944,35.109108,106.770195,122.53414,1.5701243,7.9052544,35.628815
439.3842,0.013567451,0.0027283758,598.5788,590.45764,149.4624,34.60459,108.8698,125.18548,1.633148,8.121188,35.112484
447.16187,0.01368944,0.0027869733,609.2242,600.8842,152.04771,34.088905,110.99528,127.86789,1.6978916,8.339938,34.585247
455.02292,0.013809194,0.0028448305,619.98315,611.42175,154.6594,33.567093,113.14656,130.55273,1.7637471,8.561468,34.052147
462.9671,0.01392666,0.0029018968,630.8557,622.07,157.29773,33.039707,115.3238,133.23877,1.8306782,8.785712,33.513737
470.96878,0.0140417935,0.0029596342,641.84344,632.8308,159.9891,32.499714,117.50806,135.96834,1.899622,9.012633,32.962963
479.0535,0.01415456,0.0030166288,652.9473,643.70514,162.70982,31.954206,119.7172,138.70152,1.9696997,9.242182,32.406925
487.20908,0.014264912,0.0030742842,664.1678,654.6934,165.4717,31.396637,121.95573,141.47871,2.0418406,9.474295,31.83906
495.44836,0.014372817,0.003130817,675.50366,665.79474,168.26189,30.835443,124.220184,144.24992,2.1148784,9.708891,31.267803
503.77164,0.014478226,0.003186159,686.9555,677.00964,171.08092,30.271084,126.510765,147.01355,2.1887493,9.945897,30.693617
512.1805,0.01458111,0.0032402717,698.5247,688.3395,173.9285,29.70383,128.82797,149.769,2.2634099,10.185266,30.116756
520.67426,0.014681444,0.0032931014,710.2112,699.7843,176.80554,29.1342,131.17157,152.5147,2.3387976,10.426926,29.537735
529.25433,0.014779212,0.0033445861,722.0161,711.34534,179.7119,28.562485,133.542,155.24945,2.4148452,10.67083,28.956844
537.9212,0.014874402,0.0033946873,733.9405,723.0236,182.64798,27.989174,135.93951,157.97203,2.4914982,10.916925,28.374567
546.6751,0.014967012,0.0034433363,745.98425,734.8191,185.61375,27.414587,138.36424,160.68085,2.5686748,11.165155,27.791218
555.5165,0.015057037,0.0034905304,758.14813,746.7327,188.60977,26.83896,140.81622,163.37578,2.6463392,11.415464,27.207026
564.4458,0.0151444785,0.0035361673,770.4326,758.76483,191.63586,26.262932,143.29556,166.05394,2.7243786,11.667801,26.62263
573.4632,0.015229337,0.0035802252,782.8378,770.9157,194.69254,25.686766,145.80252,168.7146,2.8027356,11.922101,26.038284
582.5695,0.015311618,0.003622641,795.36505,783.18677,197.78001,25.110939,148.33727,171.3558,2.881322,12.178325,25.454464
591.7647,0.01539133,0.0036633958,808.0139,795.5775,200.89825,24.535643,150.8997,173.97708,2.9600747,12.436409,24.871357
601.04913,0.015468477,0.0037024454,820.7849,808.08856,204.04753,23.961391,153.49013,176.57658,3.038911,12.696292,24.289473
610.4236,0.015543072,0.0037397337,833.6786,820.72064,207.2278,23.388514,156.10852,179.15271,3.1177359,12.957925,23.709135
619.8878,0.015615123,0.0037752355,846.6956,833.47437,210.43999,22.817377,158.75499,181.70421,3.1964755,13.221256,23.130707
629.44226,0.015684647,0.0038089263,859.8359,846.34955,213.68365,22.24831,161.42969,184.22997,3.2750514,13.486222,22.554516
639.0869,0.015751654,0.003840766,873.09924,859.3465,216.95912,21.681684,164.13243,186.72838,3.35337,13.752758,21.98093
648.8221,0.015816167,0.0038707256,886.4864,872.4656,220.26636,21.117777,166.86343,189.19821,3.4313455,14.020816,21.410215
658.64844,0.0158782,0.0038987908,899.9975,885.70715,223.60553,20.557037,169.62276,191.63805,3.5089023,14.290341,20.842829
668.56555,0.015937774,0.003924931,913.633,899.07184,226.97748,19.99967,172.41058,194.04677,3.5859466,14.561276,20.278963
678.57434,0.015994908,0.003949149,927.39355,912.55994,230.38174,19.44591,175.22688,196.42374,3.6624155,14.833574,19.718851
688.674,0.016049625,0.0039714333,941.2779,926.1707,233.81836,18.89615,178.07135,198.76749,3.7382221,15.107157,19.162888
698.8662,0.01610195,0.003991759,955.2877,939.9057,237.28761,18.350647,180.94467,201.0768,3.8132782,15.381995,18.611319
709.1495,0.016151907,0.0040101307,969.42194,953.76404,240.78984,17.809664,183.84639,203.35083,3.8875089,15.658013,18.064407
719.5248,0.01619952,0.0040265503,983.68195,967.7469,244.32535,17.273453,186.77664,205.58861,3.9608452,15.935177,17.522406
729.9926,0.016244818,0.0040410114,998.0672,981.85376,247.8935,16.742304,189.73569,207.78897,4.0332007,16.21342,16.985594
740.5527,0.016287828,0.004053529,1012.5779,996.0853,251.49493,16.216316,192.72331,209.95172,4.1045136,16.492695,16.454077
751.20496,0.016328586,0.004064099,1027.2144,1010.4413,255.12982,15.69585,195.73956,212.07529,4.1747003,16.772955,15.928205
761.9499,0.016367113,0.0040727486,1041.9767,1024.9225,258.7984,15.181036,198.78452,214.15944,4.243709,17.05415,15.408105
772.78754,0.016403452,0.004079485,1056.8649,1039.5287,262.50037,14.672043,201.85829,216.20352,4.311464,17.336231,14.8939495
783.71796,0.016437624,0.0040843096,1071.8792,1054.26,266.23608,14.1692,204.96066,218.20609,4.3778863,17.619146,14.386062
794.74164,0.016469667,0.0040872716,1087.0195,1069.1167,270.00537,13.672479,208.09203,220.16765,4.442944,17.90285,13.884409
805.8577,0.016499614,0.004088383,1102.2858,1084.0985,273.80847,13.182205,211.25197,222.08699,4.5065665,18.18729,13.389317
817.0672,0.016527504,0.004087659,1117.6785,1099.206,277.64563,12.698416,214.44063,223.96388,4.5686884,18.472433,12.900818
828.3694,0.016553365,0.004085165,1133.1965,1114.4384,281.51633,12.221233,217.65799,225.7985,4.629295,18.758217,12.419033
839.7647,0.016577244,0.0040808795,1148.8416,1129.7969,285.42163,11.750929,220.90414,227.58911,4.688284,19.044626,11.944231
851.25354,0.016599173,0.004074886,1164.6127,1145.281,289.3605,11.287431,224.17934,229.33691,4.7456636,19.331606,11.476338
862.8357,0.016619187,0.004067191,1180.5099,1160.8907,293.33344,10.830979,227.48291,231.04071,4.801359,19.619114,11.015593
874.5112,0.016637325,0.004057828,1196.5337,1176.6266,297.3408,10.381628,230.81528,232.70035,4.8553276,19.90712,10.562043
886.2802,0.016653622,0.0040468536,1212.6836,1192.488,301.38205,9.939372,234.17664,234.31639,4.907553,20.195574,10.115684
898.1426,0.01666812,0.004034295,1228.9602,1208.4757,305.45782,9.504408,237.56664,235.88791,4.9579883,20.484457,9.676711
910.09784,0.016680853,0.004020187,1245.362,1224.5884,309.56732,9.076829,240.98547,237.41472,5.0065885,20.7737,9.245214
922.1467,0.016691864,0.0040045776,1261.8905,1240.8271,313.71143,8.656621,244.43262,238.89702,5.0533385,21.063303,8.8211775
934.28827,0.016701186,0.0039875275,1278.5444,1257.1913,317.88986,8.243788,247.90845,240.33539,5.0982313,21.353209,8.404603
946.5292,0.016708866,0.0039691064,1295.3247,1273.6813,322.09674,7.838235,251.41522,241.73076,5.1412816,21.643408,7.9953938
958.9073,0.016714936,0.003949524,1312.2305,1290.2966,326.29324,7.43904,254.96782,243.08972,5.182686,21.93385,7.592626
971.3766,0.016719438,0.003928463,1329.2587,1307.0342,330.52292,7.04817,258.54782,244.39876,5.2219434,22.224457,7.198263
983.93726,0.016722409,0.0039059927,1346.4093,1323.8942,334.7857,6.665587,262.15558,245.6584,5.259065,22.515207,6.8122673
996.58856,0.016723886,0.0038821772,1363.6814,1340.8754,339.08127,6.2912393,265.7909,246.86935,5.2940526,22.806053,6.4345846
1009.33264,0.016723903,0.0038570915,1381.0773,1357.9802,343.40976,5.9249306,269.45416,248.03304,5.3269415,23.097004,6.0650167
1022.1689,0.016722512,0.0038308017,1398.5963,1375.2084,347.77136,5.566577,273.1454,249.1503,5.357745,23.388044,5.7034774
1035.0967,0.016719745,0.0038033763,1416.2384,1392.5592,352.16608,5.21611,276.8646,250.22192,5.386488,23.679146,5.349898
1048.1171,0.016715646,0.0037748802,1434.0035,1410.0333,356.59338,4.873423,280.61182,251.24875,5.413192,23.970295,5.004169
1061.2299,0.016710259,0.0037453615,1451.892,1427.6305,361.05356,4.5384502,284.38727,252.23134,5.4378605,24.26149,4.666223
1074.4354,0.01670362,0.0037148842,1469.9038,1445.3511,365.5464,4.211073,288.19077,253.17079,5.460522,24.552715,4.335941
1087.733,0.016695775,0.0036835158,1488.0387,1463.1947,370.07202,3.89119,292.02234,254.06792,5.481214,24.84396,4.013218
1101.1239,0.016686756,0.0036512932,1506.2975,1481.1622,374.63013,3.5787761,295.88223,254.92296,5.4999337,25.13522,3.6980295
1114.6063,0.016676603,0.0036182737,1524.6783,1499.2518,379.2208,3.2737203,299.76996,255.73686,5.516703,25.426455,3.3902624
1128.1805,0.016665354,0.0035845104,1543.1819,1517.4642,383.84436,2.9760334,303.6857,256.50977,5.5315514,25.71767,3.089926
1141.8479,0.016653044,0.0035500429,1561.8085,1535.7996,388.4995,2.6855474,307.6298,257.24268,5.544487,26.008865,2.79685
1155.6064,0.016639711,0.0035149246,1580.5571,1554.2572,393.1876,2.402254,311.60144,257.93588,5.5555387,26.300013,2.5110261
1169.4581,0.016625384,0.0034792048,1599.4293,1572.838,397.90775,2.125999,315.60144,258.59055,5.564742,26.591124,2.2322977
1183.4017,0.016610097,0.0034429228,1618.4233,1591.5414,402.66,1.8567554,319.62936,259.2068,5.572108,26.88217,1.960637
1197.4362,0.016593894,0.0034061298,1637.5382,1610.3652,407.44394,1.5944331,323.6851,259.7854,5.5776677,27.173138,1.6959528
1211.563,0.016576797,0.003368866,1656.7754,1629.3114,412.2596,1.3389316,327.7688,260.32715,5.5814543,27.46403,1.438143
1225.7802,0.01655884,0.0033311683,1676.1335,1648.3787,417.10757,1.0902222,331.87976,260.83212,5.5834827,27.754831,1.1871778
1240.0902,0.01654006,0.0032930917,1695.6132,1667.5675,421.98584,0.8481028,336.0189,261.30188,5.5838094,28.045542,0.94285387
1254.4902,0.016520483,0.0032546474,1715.2131,1686.8771,426.8966,0.6126713,340.1855,261.7356,5.5824137,28.33615,0.70526797
1268.9811,0.016500143,0.0032158943,1734.9331,1706.3064,431.83817,0.3837387,344.37955,262.13474,5.579361,28.626646,0.47422987
1283.5658,0.016479066,0.0031768198,1754.774,1725.8569,436.8085,0.16146164,348.60257,262.49786,5.5746,28.917036,0.24989522
1298.2646,0.016457282,0.003129455,1774.7355,1745.5283,441.80087,0.0,352.84924,262.41183,5.553955,29.207325,0.086422846
1313.0676,0.016434817,0.0030594177,1794.8384,1765.3405,446.8719,0.0,357.10428,261.103,5.49116,29.497839,0.08445772
1327.8563,0.016411845,0.0029908943,1815.0748,1785.286,452.09003,0.0,361.3438,259.80072,5.428696,29.788725,0.08253733
1342.6937,0.016388886,0.0029238586,1835.4554,1805.3743,457.40207,0.0,365.5575,258.50494,5.3666124,30.08107,0.080660604
1357.6239,0.016366266,0.0028582783,1855.9718,1825.5966,462.75464,0.0,369.78427,257.21564,5.3048844,30.375326,0.07882659
1372.6488,0.0163442,0.0027941125,1876.6184,1845.9465,468.14005,0.0,374.03943,255.93274,5.243483,30.671825,0.07703425
1387.7734,0.01632281,0.0027313381,1897.3953,1866.4244,473.5533,0.0,378.32553,254.65625,5.1824284,30.970821,0.07528265
1402.9985,0.016302152,0.0026699363,1918.3004,1887.0278,478.99115,0.0,382.64383,253.38615,5.1217394,31.27242,0.073570944
1418.3187,0.016282244,0.0026098613,1939.335,1907.7582,484.46045,0.0,386.9907,252.12239,5.061395,31.576723,0.07189812
1433.733,0.01626308,0.0025510928,1960.498,1928.6145,489.9613,0.0,391.3668,250.8649,5.001413,31.88374,0.070263304
1449.239,0.01624464,0.0024936064,1981.7859,1949.5925,495.49197,0.0,395.77078,249.61372,4.941794,32.193398,0.06866569
1464.8376,0.016226886,0.0024373673,2003.199,1970.6932,501.0522,0.0,400.20306,248.36877,4.8825316,32.505684,0.067104384
1480.5264,0.01620978,0.0023823571,2024.7341,1991.9137,506.64185,0.0,404.6625,247.12999,4.82364,32.82049,0.06557857
1496.3044,0.016193282,0.0023285467,2046.3912,2013.2533,512.261,0.0,409.14938,245.89742,4.7651176,33.13779,0.0640875
1512.1707,0.016177354,0.002275911,2068.168,2034.7107,517.9093,0.0,413.66302,244.67102,4.7069664,33.457485,0.06263029
