con,Omega,ygross,ynet,inv,Eind,scc,carbontax,Dam,Emissions
77.16466,0.0028556,105.17594,104.8756,27.71095,36.845238,19.695875,550.0,0.3003404,39.445236
79.540955,0.0031179856,108.61998,108.2813,28.740349,37.477425,20.156734,547.25684,0.3386755,40.018307
82.06598,0.0033622475,112.198746,111.82151,29.755533,38.127377,20.679043,544.5275,0.37723997,40.610485
84.7179,0.0035915354,115.89724,115.48099,30.763094,38.788563,21.250076,541.8116,0.41624907,41.21521
87.453674,0.003808786,119.70386,119.24793,31.794254,39.4561,21.858221,539.1093,0.4559264,41.827576
90.26661,0.004016618,123.61997,123.123436,32.85683,40.12943,22.502144,536.4205,0.49653417,42.446983
93.200584,0.004217303,127.64918,127.11085,33.910263,40.80886,23.191233,533.7451,0.53833526,43.07372
96.23616,0.004412777,131.77902,131.19751,34.961357,41.48953,23.916216,531.08307,0.58151144,43.702885
99.2799,0.0046046693,136.00056,135.37433,36.094425,42.16786,24.654106,528.4342,0.6262376,44.330894
102.440605,0.004794336,140.33527,139.66243,37.221836,42.849842,25.43563,525.79865,0.6728143,44.96369
105.68713,0.004982887,144.77135,144.04997,38.362835,43.53125,26.251507,523.1762,0.7213792,45.59704
109.015945,0.0051712464,149.30255,148.53047,39.514534,44.209328,27.097813,520.5669,0.7720802,46.228146
112.381905,0.0053601647,153.92386,153.09879,40.71689,44.88232,27.962557,517.9706,0.8250572,46.855236
115.83164,0.005550251,158.64638,157.76585,41.934208,45.55272,28.859402,515.3871,0.8805272,47.480778
119.3709,0.005741994,163.46721,162.52858,43.15768,46.21938,29.788204,512.81665,0.93862766,48.103596
122.98098,0.0059357877,168.3807,167.38123,44.400257,46.879955,30.742638,510.25897,0.99947214,48.72133
126.6719,0.00613195,173.38571,172.32253,45.650616,47.533974,31.724817,507.71402,1.0631925,49.333477
130.43736,0.006330731,178.47874,177.34886,46.9115,48.17984,32.73205,505.18176,1.129901,49.93843
134.27374,0.0065323235,183.65791,182.4582,48.184452,48.816994,33.762848,502.66214,1.199713,50.5356
138.16011,0.006736878,188.9224,187.64966,49.48955,49.444668,34.8151,500.15515,1.272747,51.124195
142.12178,0.006944503,194.27565,192.9265,50.80473,50.06367,35.894947,497.66055,1.3491478,51.70501
146.16054,0.007155276,199.7189,198.28984,52.12932,50.674046,37.00196,495.1785,1.4290438,52.278065
150.27328,0.00736925,205.25185,203.73927,53.465977,51.275333,38.134644,492.70874,1.5125521,52.84288
154.4292,0.0075864615,210.87357,209.27377,54.844593,51.86713,39.290035,490.2514,1.5997843,53.399033
158.64268,0.0078069293,216.58282,214.89198,56.249287,52.44872,40.468422,487.80627,1.6908468,53.94579
162.92386,0.008030656,222.38014,220.59428,57.670433,53.020294,41.67054,485.37332,1.7858584,54.48333
167.27281,0.0082576405,228.2659,226.38097,59.10815,53.581467,42.896587,482.95248,1.8849379,55.011234
171.69028,0.008487858,234.2409,232.2527,60.56243,54.13252,44.146954,480.5438,1.9882035,55.529774
176.16776,0.008721291,240.3059,238.2101,62.04234,54.673122,45.418568,478.147,2.0957775,56.03861
180.70296,0.008957905,246.46371,244.25589,63.55294,55.20396,46.710773,475.76218,2.2077985,56.5384
185.28917,0.009197667,252.71455,250.39017,65.101,55.724754,48.020897,473.38937,2.3243845,57.028854
189.93753,0.009440534,259.05682,256.6112,66.67367,56.235073,49.35115,471.02832,2.4456348,57.509518
194.6534,0.0096864635,265.4953,262.92358,68.270195,56.735687,50.70634,468.67902,2.5717106,57.981155
199.44958,0.009935413,272.03513,269.33234,69.882774,57.227486,52.092144,466.3415,2.7027812,58.444633
204.34589,0.010187333,278.6765,275.83755,71.49166,57.710377,53.51702,464.01566,2.8389707,58.89985
209.29579,0.010442181,285.40305,282.42282,73.12702,58.180702,54.96025,461.7013,2.98023,59.34313
214.30682,0.010699908,292.2192,289.0925,74.78567,58.639297,56.425186,459.39856,3.1267188,59.775295
219.3835,0.01096046,299.12802,295.84943,76.46594,59.08681,57.913986,457.10733,3.2785807,60.196976
224.51689,0.011223774,306.1313,302.6953,78.17841,59.523357,59.423306,454.8275,3.4359484,60.608288
229.72112,0.0114897955,313.23096,309.632,79.91086,59.949238,60.958984,452.55902,3.5989597,61.009487
234.99728,0.011758455,320.428,316.66028,81.663,60.3645,62.521534,450.30185,3.7677386,61.400654
240.34598,0.0120297,327.72314,323.78073,83.43475,60.769287,64.11141,448.05597,3.942411,61.781876
245.76797,0.012303466,335.11728,330.9942,85.22621,61.163536,65.72896,445.82132,4.123104,62.1531
251.26385,0.0125796925,342.61078,338.30087,87.03701,61.547325,67.3746,443.59775,4.309938,62.514393
256.82996,0.012858314,350.20465,345.7016,88.87165,61.920532,69.04629,441.38525,4.5030413,62.865616
262.45593,0.013139273,357.89307,353.19064,90.734695,62.28226,70.73956,439.1839,4.7024546,63.205853
268.14096,0.013422507,365.6742,360.76596,92.625015,62.632053,72.4543,436.99344,4.9082646,63.534637
273.8917,0.01370795,373.55225,368.4316,94.53991,62.970592,74.19361,434.8139,5.120635,63.852665
279.7117,0.013995536,381.52936,376.18967,96.47796,63.298332,75.95916,432.64526,5.3397083,64.16035
285.60342,0.014285193,389.60718,384.04156,98.43816,63.615246,77.75227,430.48746,5.5656137,64.45765
291.56885,0.014576858,397.78723,391.9887,100.41986,63.921753,79.57378,428.34033,5.7984877,64.745
297.60822,0.014870462,406.07004,400.0316,102.42337,64.2178,81.42402,426.20395,6.0384493,65.02233
303.72266,0.015165941,414.45663,408.171,104.44836,64.50357,83.30362,424.07834,6.2856245,65.28981
309.91324,0.015463229,422.94775,416.40762,106.49439,64.77893,85.212975,421.96323,6.5401387,65.547295
316.1806,0.015762256,431.54407,424.74197,108.561386,65.04417,87.15269,419.85864,6.802109,65.79507
322.525,0.016062967,440.24622,433.17456,110.64957,65.29907,89.12279,417.76456,7.071661,66.03289
328.90952,0.016365297,449.05438,441.70547,112.795944,65.54391,91.10629,415.68094,7.3489084,66.26104
335.36353,0.016669182,457.9672,450.33328,114.96974,65.778275,93.1168,413.60776,7.6339383,66.47911
341.8917,0.016974559,466.98602,459.0591,117.16743,66.00241,95.1567,411.5449,7.926882,66.6873
348.49496,0.017281365,476.1118,467.88388,119.38891,66.2165,97.22643,409.49225,8.227861,66.885826
355.17493,0.01758954,485.3453,476.80826,121.63334,66.42044,99.326775,407.4499,8.537,67.07455
361.9319,0.017899014,494.68744,485.83304,123.90115,66.61442,101.458145,405.41776,8.854418,67.253654
368.76642,0.018209739,504.13864,494.9584,126.19197,66.79864,103.62088,403.3957,9.180233,67.42334
375.67657,0.018521642,513.69946,504.1849,128.50833,66.97301,105.81252,401.38373,9.514558,67.583496
382.65588,0.01883466,523.36786,513.5105,130.8546,67.13716,108.028915,399.38184,9.857456,67.73377
389.7019,0.01914874,533.141,522.932,133.23012,67.29101,110.27148,397.38986,10.20898,67.874054
396.8194,0.019463824,543.0214,532.45215,135.63274,67.43474,112.54269,395.4079,10.569274,68.004524
404.01163,0.01977984,553.01117,542.0727,138.06107,67.56869,114.844055,393.43576,10.938473,68.12552
411.2908,0.020096736,563.1114,551.7947,140.50388,67.69297,117.180046,391.47354,11.316701,68.23714
418.64383,0.020414444,573.321,561.61694,142.97311,67.80749,119.54606,389.52103,11.70403,68.33929
426.0728,0.020732908,583.6413,571.5407,145.46796,67.91244,121.943016,387.5783,12.100581,68.432144
433.57986,0.021052072,594.07404,581.5675,147.98766,68.00803,124.37201,385.64514,12.506488,68.51592
441.1657,0.021371871,604.61914,591.6974,150.53162,68.09432,126.8336,383.7218,12.921843,68.59066
448.83115,0.021692256,615.278,601.9312,153.10011,68.17136,129.32814,381.8079,13.346767,68.65641
456.5762,0.022013167,626.05035,612.269,155.69276,68.23948,131.85588,379.90366,13.781351,68.71351
464.40225,0.022334544,636.9375,622.7118,158.30957,68.29841,134.41754,378.00888,14.225709,68.76166
472.30917,0.022656338,647.9394,633.25946,160.9503,68.34852,137.01295,376.1236,14.679935,68.80124
480.2973,0.022978498,659.0568,643.91266,163.61539,68.389824,139.64264,374.24768,15.1441345,68.832245
488.36685,0.023300963,670.2899,654.6715,166.30469,68.42237,142.30658,372.3811,15.618401,68.85474
496.51794,0.023623683,681.6392,665.53644,169.01848,68.44626,145.00525,370.52383,16.102829,68.86879
504.7382,0.023946604,693.1052,676.50775,171.76952,68.46147,147.72845,368.67575,16.597517,68.8744
513.01514,0.024269681,704.6815,687.57904,174.56387,68.46766,150.47192,366.83698,17.102394,68.87119
521.3624,0.024592862,716.3691,698.75146,177.38908,68.46477,153.2444,365.00735,17.617565,68.85913
529.78577,0.024916088,728.17126,710.0281,180.2423,68.45343,156.04893,363.18686,18.143179,68.83882
538.28687,0.025239322,740.08905,721.4098,183.12291,68.43358,158.88626,361.37546,18.679348,68.8102
546.8671,0.025562502,752.1237,732.8976,186.0304,68.40549,161.75735,359.57306,19.226166,68.77356
555.5284,0.025885582,764.2759,744.4922,188.96379,68.36929,164.66293,357.77966,19.783726,68.729
564.27026,0.026208512,776.54565,756.19354,191.92323,68.325096,167.60306,355.99527,20.352106,68.676605
573.1062,0.026531255,788.9342,768.0028,194.8966,68.27303,170.5773,354.21964,20.931416,68.61656
582.01184,0.026853746,801.43365,779.9122,197.90027,68.212395,173.57935,352.45297,21.521494,68.5481
590.9884,0.027175957,814.04614,791.92365,200.93527,68.1437,176.61131,350.6951,22.122484,68.47178
600.04095,0.027497835,826.77466,804.0401,203.99913,68.06707,179.67572,348.946,22.734514,68.387695
609.17456,0.027819334,839.62134,816.26355,207.08897,67.982834,182.77608,347.20557,23.357706,68.296165
618.38824,0.02814041,852.5844,828.5922,210.20404,67.89101,185.91321,345.47385,23.992077,68.19721
627.6721,0.028461017,865.66077,841.02313,213.35106,67.79138,189.08015,343.75082,24.637585,68.09062
637.0322,0.028781118,878.8538,853.55945,216.52722,67.6842,192.27988,342.0363,25.294394,67.97664
646.47156,0.029100657,892.1653,866.20264,219.73114,67.56998,195.51404,340.3304,25.962595,67.855774
655.99054,0.029419607,905.59595,878.9537,222.9631,67.448555,198.78308,338.63303,26.642277,67.72785
665.5917,0.029737921,919.1466,891.8131,226.2214,67.32013,202.08777,336.944,27.33351,67.59307
675.27356,0.030055568,932.8165,904.7803,229.50668,67.18495,205.42798,335.2635,28.036333,67.45169
685.0389,0.03037249,946.60803,917.8572,232.81827,67.04305,208.80502,333.5913,28.75084,67.30373
694.8902,0.030688664,960.5193,931.04224,236.15204,66.89449,212.22026,331.92758,29.477055,67.14924
704.82367,0.031004053,974.55035,944.3353,239.51166,66.73939,215.67189,330.272,30.215012,66.988335
714.85596,0.031318612,988.70087,957.73615,242.88017,66.57779,219.17722,328.6248,30.964739,66.82108
724.9639,0.031632315,1002.96826,971.24207,246.27815,66.40951,222.71622,326.98578,31.726208,66.64727
735.15045,0.03194513,1017.3544,984.855,249.7045,66.2349,226.2904,325.35492,32.499523,66.46726
745.3994,0.032257013,1031.8612,998.5764,253.17697,66.054184,229.88872,323.73218,33.28476,66.281265
755.6906,0.032567933,1046.4825,1012.4008,256.71024,65.86697,233.49849,322.11758,34.08177,66.08887
766.0526,0.032877866,1061.2196,1026.329,260.27634,65.673546,237.13928,320.51096,34.890636,65.8904
776.4905,0.033186767,1076.0747,1040.3632,263.8727,65.47407,240.81383,318.91235,35.711437,65.68599
787.0073,0.03349461,1091.0493,1054.5051,267.4978,65.26895,244.52377,317.32175,36.544273,65.47606
797.60406,0.033801366,1106.1447,1068.7552,271.1512,65.058014,248.26971,315.73904,37.389194,65.260414
808.281,0.034106992,1121.3596,1083.1134,274.8324,64.841675,252.0518,314.16434,38.2462,65.039474
819.0402,0.034411464,1136.6968,1097.5814,278.54114,64.61992,255.87122,312.59738,39.1154,64.813225
829.8803,0.034714755,1152.155,1112.1582,282.27786,64.39292,259.72705,311.0383,39.996777,64.58183
840.8023,0.035016842,1167.734,1126.8438,286.0414,64.16075,263.62036,309.487,40.890358,64.345375
851.8063,0.035317693,1183.4352,1141.6389,289.83267,63.923496,267.55075,307.94342,41.796204,64.103905
862.8921,0.03561729,1199.2574,1156.5432,293.6511,63.681164,271.51895,306.4075,42.7143,63.857475
874.0601,0.035915587,1215.2015,1171.5568,297.4967,63.43405,275.52454,304.87927,43.644676,63.60635
885.30914,0.03621258,1231.2664,1186.6791,301.36984,63.182175,279.5673,303.35867,44.587326,63.35056
896.63995,0.03650823,1247.4528,1201.9105,305.27057,62.925575,283.64767,301.84564,45.542294,63.090134
908.05286,0.03680252,1263.76,1217.2505,309.1977,62.664448,287.76593,300.34024,46.509552,62.825264
919.5471,0.03709544,1280.1887,1232.6995,313.15237,62.398907,291.9217,298.8423,47.48916,62.55606
931.12354,0.037386946,1296.739,1248.2579,317.13443,62.128952,296.11533,297.35178,48.481113,62.28254
942.78143,0.03767702,1313.4104,1263.9249,321.14352,61.85467,300.34683,295.8687,49.48539,62.00477
954.5213,0.03796564,1330.2032,1279.7012,325.17993,61.576305,304.61627,294.393,50.502018,61.722984
966.34235,0.038252804,1347.1163,1295.5852,329.2429,61.293888,308.92383,292.92477,51.530975,61.43723
978.24536,0.03853847,1364.1506,1311.5782,333.333,61.007458,313.26923,291.46375,52.572277,61.147552
990.2293,0.038822632,1381.3057,1327.6797,337.4504,60.717117,317.65265,290.01004,53.62592,60.85402
1002.2951,0.03910526,1398.5815,1343.8898,341.59454,60.42306,322.07434,288.56363,54.69189,60.55685
1014.44183,0.03938635,1415.9774,1360.2074,345.76547,60.12539,326.5341,287.12442,55.770184,60.256134
1026.6697,0.03966587,1433.4938,1376.633,349.96332,59.824074,331.03183,285.69235,56.86078,59.951855
1038.9788,0.039943803,1451.1306,1393.1669,354.1881,59.519253,335.56784,284.26752,57.963673,59.64412
1051.3695,0.040220134,1468.8873,1409.8083,358.4388,59.211105,340.14252,282.8497,59.078846,59.333138
1063.8416,0.040494863,1486.7645,1426.5582,362.7168,58.899662,344.75534,281.43893,60.206326,59.018913
1076.3932,0.040767957,1504.7603,1443.4143,367.02127,58.58492,349.40598,280.03522,61.346,58.701454
1089.0258,0.0410394,1522.8759,1460.3779,371.35208,58.267277,354.09506,278.6386,62.497913,58.38117
1101.7389,0.04130919,1541.1108,1477.4489,375.70984,57.94647,358.82242,277.2489,63.662037,58.057774
1114.5332,0.041577287,1559.465,1494.6267,380.09357,57.62285,363.58823,275.86612,64.83832,57.731617
1127.408,0.04184371,1577.9385,1511.9117,384.50388,57.29638,368.39246,274.4902,66.0268,57.402676
1140.3633,0.042108428,1596.5308,1529.3033,388.9401,56.967167,373.23508,273.12112,67.2274,57.07105
1153.389,0.04237143,1615.2402,1546.8002,393.41098,56.635345,378.11047,271.7589,68.44003,56.736862
1166.443,0.042632703,1634.0645,1564.3999,397.95682,56.300835,382.99326,270.40353,69.66458,56.400047
1179.5332,0.04289223,1652.9838,1582.0835,402.55038,55.963165,387.8914,269.05487,70.90016,56.060123
1192.6879,0.043150023,1672.0092,1599.8618,407.17395,55.622765,392.82062,267.71292,72.147224,55.717514
1205.9467,0.043406047,1691.1503,1617.7441,411.79742,55.280064,397.80283,266.3777,73.40614,55.372665
1219.3066,0.043660276,1710.4196,1635.7421,416.43542,54.935658,402.8346,265.04916,74.67739,55.026146
1232.7576,0.04391272,1729.8126,1653.8519,421.09433,54.589275,407.91077,263.7271,75.96078,54.677708
1246.2925,0.04416337,1749.3247,1672.0688,425.77625,54.241173,413.0277,262.41183,77.25607,54.327595
1259.9092,0.044412214,1768.9552,1690.3918,430.4827,53.8911,418.18423,261.103,78.56322,53.97556
1273.6051,0.044659253,1788.7012,1708.8191,435.2139,53.539192,423.37906,259.80072,79.88206,53.62173
1287.3796,0.044904463,1808.5632,1727.3507,439.97107,53.18566,428.61206,258.50494,81.21256,53.26632
1301.2316,0.045147832,1828.5398,1745.9851,444.75348,52.830524,433.88275,257.21564,82.5546,52.90935
1315.1611,0.045389384,1848.6304,1764.7222,449.561,52.47367,439.19095,255.93274,83.908195,52.55071
1329.1687,0.045629095,1868.8362,1783.563,454.39432,52.115356,444.5373,254.65625,85.27331,52.19064
1343.224,0.045866948,1889.155,1802.505,459.28107,51.755787,449.91223,253.38615,86.64977,51.829357
1357.3296,0.04610294,1909.5765,1821.5394,464.20993,51.394474,455.31232,252.12239,88.03709,51.46637
1371.4987,0.046337076,1930.1046,1840.6693,469.1706,51.031757,460.74246,250.8649,89.43541,51.10202
1385.7355,0.046569347,1950.7405,1859.8959,474.16034,50.667828,466.20538,249.61372,90.84471,50.736492
1400.0447,0.04679975,1971.4873,1879.222,479.17737,50.3027,471.7036,248.36877,92.26511,50.369804
1414.4277,0.047028273,1992.3446,1898.6481,484.22046,49.936626,477.23764,247.12999,93.696526,50.002205
1428.8845,0.047254913,2013.3124,1918.1735,489.28885,49.569607,482.8078,245.89742,95.1389,49.633694
1443.416,0.047479678,2034.3909,1937.7986,494.38263,49.201736,488.4148,244.67102,96.59222,49.264366
1458.0195,0.047702536,2055.5786,1957.5225,499.50278,48.83314,494.0571,243.45068,98.05631,48.89435
1472.699,0.04792351,2076.8757,1977.3446,504.64572,48.46384,499.73666,242.2365,99.53117,48.52366
1487.4515,0.048142586,2098.2827,1997.2659,509.81445,48.09383,505.45197,241.02832,101.016754,48.152287
1502.276,0.04835976,2119.7969,2017.284,515.008,47.723316,511.2032,239.82622,102.51287,47.780445
1517.1757,0.04857503,2141.4207,2037.4009,520.22516,47.352333,516.9911,238.63002,104.01957,47.408154
1532.1473,0.048788406,2163.1519,2057.615,525.46765,46.980946,522.8146,237.43987,105.53672,47.035503
1547.1919,0.048999872,2184.9895,2077.9253,530.73334,46.60917,528.6742,236.25562,107.0642,46.662487
1562.3086,0.04920945,2206.9343,2098.332,536.02356,46.237137,534.56995,235.07727,108.60201,46.28924
1577.4972,0.049417123,2228.9854,2118.8354,541.3381,45.864887,540.5009,233.90482,110.15005,45.91581
1592.7585,0.049622886,2251.142,2139.434,546.6755,45.492504,546.46783,232.73819,111.708176,45.542263
1608.0903,0.049826737,2273.4036,2160.1272,552.0369,45.120026,552.47003,231.5774,113.276276,45.16865
1623.4939,0.050028708,2295.7695,2180.915,557.4212,44.74761,558.5075,230.42236,114.854385,44.795135
1638.965,0.050228756,2318.2388,2201.7966,562.8316,44.375145,564.57385,229.27316,116.44225,44.42159
1654.4962,0.05042692,2340.811,2222.771,568.2747,44.002785,570.655,228.12962,118.03987,44.048172
1670.0852,0.050623156,2363.4788,2243.832,573.7468,43.63055,576.7639,226.99182,119.64676,43.674908
1685.7378,0.0508175,2386.2454,2264.9822,579.24445,43.258415,582.90424,225.85965,121.26303,43.30176
1701.4575,0.05100995,2409.1133,2286.2246,584.767,42.88657,589.07733,224.73318,122.88875,42.928932
1717.2433,0.051200505,2432.0796,2307.556,590.31256,42.515125,595.28314,223.6123,124.52371,42.556522
1733.1058,0.051389165,2455.1453,2328.9775,595.87164,42.144005,601.5225,222.49709,126.16786,42.18446
1749.0913,0.051575936,2478.3147,2350.4932,601.40186,41.773502,607.81464,221.38739,127.82141,41.813038
1765.179,0.051760815,2501.6008,2372.116,606.9372,41.40374,614.1588,220.28323,129.4849,41.442375
1781.352,0.051943813,2524.996,2393.8381,612.48615,41.03472,620.5463,219.18459,131.15793,41.072483
1797.5963,0.05212492,2548.4937,2415.6538,618.05743,40.6664,626.97186,218.09134,132.84004,40.7033
1813.898,0.052304145,2572.0852,2437.5547,623.6565,40.298687,633.42706,217.00356,134.53072,40.33475
1830.2589,0.052481506,2595.769,2459.539,629.28,39.931652,639.9113,215.92122,136.22986,39.966892
1846.676,0.052657,2619.544,2481.6067,634.93066,39.565247,646.4208,214.84435,137.93733,39.599686
1863.1383,0.05283062,2643.4126,2503.7595,640.62103,39.19973,652.9302,213.7728,139.65314,39.233387
1879.6595,0.0530024,2667.3652,2525.9883,646.3288,38.83494,659.4515,212.70659,141.37675,38.867832
1896.2194,0.05317232,2691.3936,2548.286,652.06647,38.47076,665.9892,211.6457,143.10765,38.502903
1912.8237,0.05334039,2715.5051,2570.659,657.83514,38.1075,672.5477,210.59012,144.8461,38.138912
1929.484,0.0535066,2739.7039,2593.1116,663.62744,37.74514,679.13245,209.53983,146.59224,37.77584
1946.2024,0.053670973,2763.9907,2615.6445,669.44226,37.38382,685.7461,208.49475,148.34607,37.413822
1962.9829,0.053833514,2788.3704,2638.2627,675.27966,37.023663,692.3898,207.45488,150.10777,37.052982
1979.8229,0.053994205,2812.8364,2660.9597,681.13696,36.664646,699.0626,206.42018,151.87686,36.693295
1996.7264,0.05415308,2837.3936,2683.74,687.0136,36.306793,705.76636,205.39067,153.6536,36.334793
2013.6895,0.054310147,2862.0388,2706.601,692.91174,35.9502,712.4991,204.36627,155.43776,35.977566
2030.7148,0.054465383,2886.771,2729.5417,698.82697,35.59489,719.26306,203.347,157.22908,35.621635
2047.7996,0.05461882,2911.5908,2752.563,704.76355,35.240932,726.0557,202.33278,159.02766,35.267067
2064.9463,0.05477046,2936.4983,2775.665,710.71844,34.8883,732.87897,201.3236,160.83336,34.91384
