con,Omega,Theta,ygross,ynet,inv,Eind,scc,carbontax,Abatement,Dam,Emissions
77.26029,0.0028556,0.00021521756,105.17594,104.8756,27.59275,32.949215,15.750578,15.105888,0.02263571,0.3003404,35.549217
79.30256,0.0031179856,0.00022758938,108.63365,108.29494,28.967735,33.401054,16.156347,15.751199,0.024723867,0.33871818,35.941936
81.70825,0.0033437812,0.0002391827,112.29472,111.91924,30.184221,33.891865,16.60553,16.361591,0.026858954,0.375489,36.374973
84.30879,0.003541108,0.00024980368,116.09428,115.683174,31.345491,34.40094,17.081316,16.930698,0.02900078,0.41110238,36.82759
86.99019,0.003716864,0.00025993958,120.00058,119.55455,32.533287,34.914284,17.591473,17.480194,0.0311929,0.44602582,37.28576
89.76617,0.003876658,0.00026995645,124.02074,123.539955,33.740433,35.430454,18.14315,18.025923,0.0334802,0.48078603,37.74801
92.760475,0.004024922,0.00027991197,128.17747,127.66158,34.86537,35.95455,18.715773,18.570595,0.035878412,0.5159043,38.21941
95.871605,0.0041651027,0.00028969618,132.43259,131.881,35.971184,36.475555,19.302153,19.110046,0.03836522,0.55159533,38.688915
99.029945,0.004299858,0.00029926348,136.77092,136.18282,37.112114,36.988983,19.906244,19.642797,0.04093054,0.58809555,39.152016
102.21204,0.004431208,0.00030869158,141.2001,140.57443,38.31899,37.495968,20.539284,20.172304,0.043587286,0.62568706,39.609818
105.561035,0.0045606657,0.00031848016,145.7433,145.07861,39.47138,37.998722,21.188267,20.718788,0.04641635,0.6646865,40.06451
109.00535,0.0046893638,0.00032848312,150.37518,149.67003,40.615498,38.490753,21.84942,21.276485,0.049395707,0.7051639,40.50957
112.52292,0.0048181484,0.00033869507,155.0879,154.34067,41.765488,38.969955,22.521559,21.845194,0.05252751,0.74723655,40.94287
116.10755,0.0049476335,0.00034914297,159.87936,159.08833,42.92524,39.435112,23.204384,22.426132,0.055820752,0.7910245,41.363167
119.75728,0.0050782613,0.0003598567,164.74889,163.91225,44.096,39.885834,23.897831,23.020473,0.05928599,0.8366379,41.77005
123.47288,0.0052103414,0.00037086516,169.697,168.8128,45.27733,40.3216,24.601934,23.629498,0.0629347,0.8841793,42.162975
127.233284,0.0053440817,0.0003821352,174.72414,173.7904,46.490723,40.742813,25.316477,24.251883,0.066768244,0.9337401,42.54232
131.0473,0.005479618,0.00039402538,179.83287,178.84744,47.729664,41.147,26.041586,24.901743,0.07085872,0.9854154,42.90559
134.93779,0.0056170295,0.0004063561,185.02553,183.98625,48.97369,41.536034,26.778122,25.571949,0.07518625,1.0392939,43.25464
138.8999,0.005756352,0.00041908637,190.30074,189.20529,50.226105,41.90943,27.525856,26.261015,0.07975245,1.095438,43.58896
142.932,0.005897593,0.00043221615,195.65819,194.50426,51.4882,42.26711,28.284788,26.968914,0.08456663,1.1539123,43.90845
147.00716,0.006040736,0.0004456477,201.09808,199.88329,52.787045,42.609653,29.053368,27.691954,0.08961889,1.2147804,44.213673
151.13461,0.0061857505,0.0004594175,206.62143,205.3433,54.114365,42.93679,29.832287,28.431644,0.0949255,1.2781087,44.504337
155.33084,0.006332593,0.0004736034,212.22865,210.8847,55.453987,43.24796,30.62241,29.191008,0.100512214,1.3439578,44.77986
159.59612,0.006481213,0.00048820174,217.92026,216.50787,56.80605,43.542988,31.42385,29.970015,0.10638905,1.4123877,45.040062
163.93036,0.0066315546,0.0005032244,223.6967,222.21326,58.171055,43.822014,32.236595,30.769087,0.11256964,1.483457,45.28505
168.31882,0.006783551,0.00051862374,229.55849,228.00128,59.564217,44.085106,33.059017,31.586605,0.11905449,1.5572219,45.51487
172.7578,0.0069371387,0.0005343928,235.50685,233.8731,60.990295,44.3327,33.890617,32.42231,0.12585315,1.6337436,45.729958
177.26767,0.0070922454,0.0005505879,241.54231,239.82922,62.429523,44.564102,34.73378,33.278507,0.13299027,1.7130773,45.92959
181.84584,0.0072488044,0.0005672103,247.66516,245.86989,63.884598,44.779453,35.587612,34.15527,0.14047824,1.7952763,46.11389
186.48682,0.0074067414,0.0005842486,253.8753,251.99493,65.360886,44.978622,36.45044,35.05231,0.14832631,1.8803886,46.282722
191.19217,0.007565982,0.00060169713,260.17145,258.20297,66.85543,45.161457,37.32448,35.969494,0.1565444,1.9684525,46.435905
195.96643,0.0077264514,0.0006195643,266.5558,264.49628,68.365974,45.32814,38.20999,36.907295,0.16514845,2.0595305,46.573605
200.8112,0.007888074,0.00063785317,273.02942,270.87573,69.891754,45.478756,39.10713,37.865948,0.17415269,2.153676,46.695904
205.72816,0.008050775,0.00065656606,279.59314,277.3422,71.431915,45.613476,40.016026,38.84563,0.18357137,2.2509415,46.80295
210.71703,0.008214478,0.000675705,286.24744,283.89606,72.98718,45.73221,40.936726,39.846596,0.19341883,2.3513732,46.894638
215.77856,0.008379104,0.0006952824,292.993,290.538,74.55742,45.834938,41.869453,40.86945,0.2037129,2.455019,46.970936
220.91321,0.008544578,0.0007152716,299.83047,297.26855,76.14272,45.92201,42.814102,41.913322,0.21446024,2.561925,47.032173
226.12234,0.00871082,0.00073567074,306.76028,304.08817,77.74208,45.993362,43.770874,42.97837,0.22567457,2.6721337,47.078293
231.40488,0.008877755,0.0007565322,313.78305,310.99738,79.357185,46.04871,44.740334,44.066643,0.23738697,2.785689,47.108963
236.75427,0.0090453075,0.000778394,320.90005,317.9974,80.9956,46.084385,45.727512,45.19753,0.24978666,2.9026396,47.120537
242.18918,0.009213398,0.0008007517,328.1175,325.0944,82.644905,46.10495,46.727028,46.35302,0.26274064,3.023077,47.11754
247.61646,0.009381943,0.0008239743,335.43063,332.28363,84.39337,46.10699,47.72894,47.546436,0.2763862,3.146991,47.096558
253.09563,0.009550864,0.0008476438,342.83365,339.55927,86.175835,46.092785,48.74246,48.76299,0.29060084,3.2743573,47.05985
258.6525,0.009720068,0.00087186217,350.33383,346.92853,87.97356,46.062443,49.76812,50.0066,0.3054428,3.4052687,47.007523
264.28372,0.009889473,0.0008970368,357.93118,354.39145,89.789795,46.01333,50.802525,51.29169,0.3210775,3.5397508,46.93692
269.99536,0.010058996,0.0009226654,365.6281,361.95026,91.62092,45.949184,51.849487,52.600758,0.33735242,3.677852,46.851776
275.7838,0.01022855,0.000948775,373.4238,369.60422,93.4697,45.869724,52.90857,53.934986,0.35429513,3.819584,46.751793
281.6476,0.010398052,0.0009755352,381.31818,377.3532,95.33749,45.773888,53.97879,55.300472,0.37198928,3.9649658,46.6359
287.5887,0.01056742,0.0010026959,389.3121,385.1981,97.223114,45.66336,55.061584,56.688847,0.3903617,4.1140246,46.505768
293.60626,0.0107365735,0.0010302399,397.40588,393.1391,99.12778,45.53849,56.156864,58.09964,0.40942338,4.2667775,46.361748
299.69968,0.010905438,0.001058137,405.59943,401.17618,101.051994,45.399437,57.264748,59.53218,0.4291798,4.423239,46.20397
305.86905,0.011073934,0.0010863767,413.89334,409.3099,102.996185,45.246456,58.38524,60.986332,0.44964406,4.5834274,46.032696
312.1029,0.011241986,0.0011147342,422.28806,417.5407,104.97234,45.080975,59.515003,62.45478,0.47073898,4.7473564,45.84934
318.4058,0.011409528,0.0011433398,430.78207,425.86707,106.9744,44.902184,60.65659,63.942204,0.4925303,4.91502,45.653076
324.7826,0.011576494,0.0011721869,439.37695,434.29056,108.99888,44.71016,61.81091,65.448875,0.51503193,5.0864453,45.443977
331.23502,0.011742811,0.0012012748,448.07376,442.81213,111.04519,44.505264,62.97786,66.97492,0.53825974,5.2616453,45.2224
337.76398,0.011908418,0.0012305733,456.87308,451.43237,113.11288,44.2877,64.15774,68.51974,0.5622158,5.440635,44.98853
344.36993,0.012073252,0.0012600565,465.77567,460.15225,115.20249,44.057804,65.350334,70.082756,0.58690363,5.6234274,44.7427
351.05325,0.012237249,0.0012897037,474.78192,468.97192,117.31383,43.815895,66.55592,71.663506,0.612328,5.810025,44.485218
357.8145,0.012400348,0.0013194785,483.89224,477.8918,119.44675,43.56211,67.77453,73.26128,0.6384854,6.0004315,44.216213
364.6536,0.0125624845,0.0013493617,493.1073,486.9126,121.60197,43.296825,69.006226,74.875656,0.6653801,6.1946526,43.936058
371.57098,0.012723601,0.0013793202,502.4273,496.0346,123.77945,43.02044,70.25101,76.50574,0.6930081,6.392685,43.64513
378.56656,0.012883644,0.0014093197,511.85272,505.25815,125.97953,42.733173,71.509,78.15081,0.72136414,6.594528,43.343666
385.641,0.013042555,0.0014393361,521.38403,514.5838,128.2022,42.435238,72.780174,79.81047,0.7504468,6.80018,43.031845
392.79462,0.01320028,0.0014693403,531.02185,524.0122,130.44765,42.127132,74.06469,81.48384,0.7802518,7.0096374,42.710175
400.0276,0.013356764,0.0014992934,540.76624,533.54333,132.71584,41.809093,75.36258,83.17007,0.81076723,7.222887,42.378883
407.3394,0.013511958,0.0015291675,550.6179,543.178,135.008,41.481457,76.67381,84.868484,0.8419871,7.439926,42.038292
414.73145,0.013665809,0.001558936,560.57715,552.9165,137.32306,41.14451,77.99852,86.57851,0.87390393,7.660741,41.688683
422.20328,0.0138182705,0.0015885556,570.64453,562.7593,139.66194,40.79864,79.3368,88.29895,0.90650064,7.88532,41.330444
429.75467,0.013969299,0.0016180002,580.82007,572.7064,142.02505,40.44416,80.68865,90.02922,0.93976694,8.11365,40.963863
437.38748,0.014118849,0.0016472333,591.10486,582.75916,144.41174,40.08143,82.05422,91.76836,0.97368765,8.34572,40.589317
445.0996,0.014266879,0.0016762308,601.49854,592.917,146.82353,39.710712,83.43332,93.51584,1.0082504,8.581507,40.20705
452.89386,0.014413342,0.001704945,612.0022,603.1812,149.25891,39.3324,84.82632,95.270325,1.04343,8.820996,39.817455
460.7676,0.014558202,0.0017333606,622.6151,613.5509,151.71982,38.946922,86.23297,97.03129,1.0792165,9.064157,39.420948
468.72314,0.01470142,0.0017614348,633.3386,624.0276,154.20523,38.554382,87.65362,98.797874,1.1155846,9.310977,39.01763
476.75964,0.014842967,0.0017891368,644.17255,634.61115,156.71608,38.15536,89.088,100.568924,1.1525129,9.561432,38.608074
484.8772,0.0149828065,0.0018164371,655.11743,645.30194,159.25255,37.750103,90.53631,102.34372,1.1899797,9.815498,38.192524
493.07727,0.015120904,0.0018433077,666.1739,656.1007,161.81406,37.338943,91.99883,104.12147,1.2279634,10.073152,37.771305
501.3587,0.015257234,0.0018697178,677.3419,667.00757,164.40175,36.922207,93.47521,105.90126,1.2664384,10.334364,37.344738
509.72186,0.015391761,0.0018956248,688.62195,678.0228,167.01569,36.50024,94.965744,107.68182,1.3053688,10.599105,36.913166
518.16705,0.015524463,0.0019210182,700.0142,689.14685,169.65604,36.073414,96.47034,109.46276,1.34474,10.867344,36.47695
526.6944,0.015655315,0.0019458622,711.5188,700.37976,172.3225,35.641945,97.98923,111.24307,1.3845176,11.1390505,36.03631
535.3037,0.015784293,0.0019701235,723.13654,711.72235,175.01648,35.20637,99.52219,113.021454,1.4246682,11.4142,35.591766
543.9962,0.015911378,0.0019937835,734.86743,723.1747,177.73668,34.76681,101.069595,114.7975,1.4651668,11.692754,35.14344
552.7707,0.016036553,0.0020168172,746.7117,734.737,180.48445,34.323654,102.63114,116.57027,1.5059811,11.974683,34.691723
561.61993,0.016159797,0.0020391354,758.6695,746.40955,183.26752,33.87762,104.20396,118.33654,1.5470299,12.259944,34.237316
570.53033,0.016281096,0.0020606488,770.7397,758.1912,186.0985,33.42941,105.78386,120.09306,1.5882238,12.548488,33.780926
579.5166,0.016400434,0.0020814368,782.92163,770.08136,188.96184,32.978626,107.37787,121.84259,1.629602,12.840256,33.32215
588.5818,0.016517796,0.0021011026,795.217,782.0817,191.85669,32.528,108.98758,123.57076,1.6708324,13.135231,32.863716
597.72327,0.016633183,0.002119757,807.624,794.1907,194.78397,32.07709,110.6125,125.281044,1.7119668,13.433359,32.40517
606.93036,0.016746588,0.002137831,820.14325,806.4086,197.75435,31.62315,112.248375,126.989136,1.7533276,13.7346,31.943771
616.22076,0.016858019,0.0021559445,832.7781,818.7391,200.75317,31.162544,113.896935,128.7176,1.7954234,14.038989,31.475874
625.6754,0.01696746,0.0021728235,845.537,831.1903,203.70883,30.704,115.57059,130.41963,1.8372025,14.346615,31.01021
635.24365,0.017074902,0.0021889184,858.4209,843.7635,206.67284,30.24478,117.26009,132.1115,1.8790133,14.657453,30.544024
644.9018,0.017180339,0.0022042145,871.4222,856.4508,209.66121,29.78478,118.96432,133.7925,1.9208013,14.971328,30.077217
654.6454,0.017283773,0.0022187068,884.54016,869.25195,212.67796,29.324371,120.68324,135.46188,1.9625353,15.288191,29.61016
664.47485,0.017385205,0.0022323648,897.77466,882.1667,215.7224,28.863745,122.41704,137.1185,2.0041606,15.607997,29.143038
674.3895,0.017484635,0.0022451929,911.126,895.1952,218.7958,28.403074,124.16557,138.76215,2.0456536,15.930704,28.676016
684.3881,0.017582063,0.00225717,924.59296,908.33673,221.89833,27.942823,125.92882,140.39137,2.0869634,16.256252,28.20956
694.4725,0.017677484,0.0022682934,938.1776,921.5931,225.03009,27.483093,127.70698,142.00595,2.128062,16.58462,27.743763
704.6418,0.017770912,0.0022785664,951.8785,934.9627,228.19058,27.024105,129.49986,143.60545,2.1689184,16.91575,27.278849
714.8974,0.017862348,0.002287976,965.6971,948.44745,231.38004,26.566166,131.30772,145.18887,2.2094917,17.249619,26.815119
725.2365,0.017951803,0.0022965213,979.6325,962.04645,234.6006,26.109472,133.13028,146.75574,2.2497468,17.586172,26.352764
735.6633,0.018039275,0.0023042029,993.68567,975.76025,237.84859,25.654154,134.968,148.3057,2.2896533,17.925367,25.891914
746.17285,0.018124783,0.002311011,1007.8554,989.5882,241.12848,25.200537,136.8203,149.83765,2.329165,18.267162,25.43289
756.76917,0.018208329,0.0023169569,1022.14325,1003.5318,244.43747,24.748785,138.68791,151.35147,2.368262,18.61152,24.975857
767.45074,0.018289927,0.0023220363,1036.5483,1017.5899,247.77634,24.299032,140.57033,152.8466,2.4069028,18.958393,24.52094
778.218,0.018369587,0.0023262529,1051.0712,1031.7634,251.14528,23.851551,142.46774,154.32236,2.4450574,19.307743,24.06841
789.0699,0.01844732,0.0023296098,1065.7118,1046.0521,254.54544,23.406458,144.38007,155.7784,2.4826927,19.659527,23.61839
800.0078,0.018523142,0.002332115,1080.4701,1060.4563,257.9754,22.964043,146.30737,157.21407,2.5197804,20.0137,23.171154
811.0304,0.018597066,0.002333772,1095.3458,1074.9757,261.43655,22.524277,148.24973,158.62929,2.5562875,20.37022,22.726679
822.1364,0.01866911,0.0023345973,1110.3384,1089.6093,264.9291,22.087456,150.20682,160.02359,2.592193,20.729029,22.285257
833.3305,0.018739281,0.0023345826,1125.4496,1104.3595,268.45074,21.653744,152.17928,161.39621,2.6274552,21.090117,21.847046
844.60803,0.018807603,0.0023337484,1140.6783,1119.225,272.00485,21.223255,154.16667,162.74704,2.6620562,21.453424,21.412163
856.0082,0.018874096,0.0023325288,1156.0244,1134.2056,275.55182,20.79315,156.176,164.09413,2.6964602,21.818916,20.977762
867.5309,0.018938774,0.002330813,1171.492,1149.3054,279.09555,20.364365,158.20607,165.43256,2.7305286,22.186623,20.544779
879.1486,0.019001646,0.0023283127,1187.0806,1164.524,282.6641,19.939129,160.25159,166.7491,2.7638948,22.556486,20.11544
890.8591,0.019062724,0.0023252387,1202.788,1179.8596,286.25705,19.516167,162.31345,168.05215,2.796769,22.928415,19.688467
902.65234,0.019122018,0.0023214656,1218.6106,1195.3083,289.88116,19.096495,164.39082,169.33556,2.8289626,23.302292,19.26488
914.528,0.019179542,0.0023169108,1234.55,1210.8721,293.53864,18.680887,166.48317,170.59497,2.8603425,23.678104,18.845446
926.4861,0.019235311,0.0023115862,1250.6055,1226.5497,297.22833,18.269518,168.59064,171.82985,2.8908825,24.055784,18.430332
938.5301,0.019289343,0.002305519,1266.7784,1242.3431,300.94882,17.862417,170.71332,173.04056,2.920582,24.435324,18.019577
950.6608,0.019341651,0.0022987002,1283.0692,1258.2526,304.6994,17.459795,172.85138,174.22592,2.9493914,24.816677,17.61338
962.87537,0.019392267,0.0022911672,1299.4768,1274.2771,308.48212,17.061586,175.00444,175.38678,2.9773185,25.199802,17.21168
975.176,0.019441206,0.0022829333,1316.0016,1290.417,312.295,16.667946,177.17296,176.52263,3.0043437,25.584658,16.814627
987.55945,0.01948849,0.0022740115,1332.6423,1306.671,316.14026,16.278992,179.35626,177.63312,3.0304437,25.971184,16.422337
1000.0279,0.019534156,0.0022644182,1349.4001,1323.0408,320.017,15.894733,181.55463,178.71829,3.0556064,26.359394,16.03482
1012.58215,0.019578217,0.0022541666,1366.2748,1339.5255,323.9239,15.51528,183.76842,179.77779,3.0798113,26.749226,15.65218
1025.2206,0.019620707,0.0022432888,1383.2657,1356.1251,327.86237,15.140641,185.99725,180.81206,3.1030648,27.140652,15.274431
1037.9615,0.019661644,0.0022314412,1400.3723,1372.8386,331.8137,14.773655,188.23816,181.80283,3.1248484,27.533623,14.904402
1050.8087,0.019701058,0.0022185955,1417.5961,1389.668,335.776,14.41475,190.49023,182.7473,3.1450722,27.928143,14.542521
1063.7424,0.019738978,0.0022051858,1434.9359,1406.6118,339.7675,14.060788,192.75742,183.66606,3.1643007,28.32417,14.185656
1076.7623,0.019775452,0.0021912474,1452.3918,1423.6702,343.78815,13.711738,195.03967,184.5597,3.18255,28.721706,13.833766
1089.8656,0.019810505,0.0021767986,1469.964,1440.8433,347.84125,13.367587,197.33664,185.42833,3.199816,29.120731,13.486842
1103.056,0.019844167,0.0021618616,1487.6508,1458.1295,351.9211,13.028326,199.6487,186.27222,3.216095,29.521189,13.144868
1116.3282,0.01987648,0.0021464599,1505.4523,1475.5292,356.03363,12.694068,201.9752,187.0912,3.2313926,29.92309,12.8079605
1129.6844,0.019907456,0.0021306025,1523.3684,1493.042,360.17648,12.364741,204.31654,187.88544,3.2456925,30.326391,12.476045
1143.1256,0.019937124,0.002114319,1541.3994,1510.6683,364.34882,12.040404,206.67284,188.65504,3.25901,30.731071,12.149177
1156.6505,0.019965513,0.0020976241,1559.5452,1528.408,368.55148,11.721035,209.04395,189.4002,3.2713397,31.13712,11.827333
1170.2582,0.019992642,0.0020805297,1577.8049,1546.2604,372.78522,11.406716,211.42973,190.12047,3.28267,31.54449,11.510598
1183.9496,0.020018542,0.0020630732,1596.1775,1564.2242,377.04764,11.097337,213.82994,190.8169,3.293031,31.953144,11.198857
1197.7249,0.020043237,0.002045262,1614.6642,1582.3009,381.33987,10.792959,216.24483,191.48917,3.3024108,32.363094,10.892171
1211.5793,0.020066746,0.0020271137,1633.2634,1600.4891,385.66547,10.493621,218.6742,192.13708,3.3108108,32.77428,10.590576
1225.5192,0.020089088,0.0020086465,1651.9757,1618.7891,390.01828,10.199282,221.11823,192.76103,3.3182352,33.186684,10.294032
1239.5259,0.020110296,0.0019896016,1670.8003,1637.2,394.41672,9.912335,223.57587,193.34448,3.3242269,33.600285,10.004931
1253.6069,0.020130392,0.0019702048,1689.7345,1655.7196,398.85056,9.631049,226.04747,193.89948,3.3291233,34.01502,9.72154
1267.7654,0.020149402,0.0019505512,1708.7809,1674.3499,403.3186,9.354652,228.53322,194.43106,3.3330646,34.430912,9.443086
1282.0542,0.020167354,0.0019307635,1727.9373,1693.0894,407.76602,9.082366,231.04057,194.94534,3.3362381,34.847923,9.168789
1296.5245,0.020184273,0.0019109073,1747.21,1711.9437,412.1477,8.813575,233.57555,195.44643,3.338756,35.266163,8.898032
1311.0995,0.020200185,0.0018908682,1766.6017,1730.9159,416.54352,8.549479,236.12593,195.92633,3.340411,35.68568,8.632016
1325.7518,0.020215116,0.0018704894,1786.1058,1749.9995,420.9743,8.291646,238.68904,196.37381,3.340892,36.10634,8.372306
1340.4752,0.02022908,0.0018497315,1805.7196,1769.1914,425.44373,8.04057,241.26447,196.78511,3.3400965,36.528046,8.119397
1355.2721,0.020242095,0.0018288208,1825.4401,1788.4895,429.94632,7.7942266,243.85388,197.17427,3.338403,36.95073,7.871261
1370.149,0.020254193,0.0018077763,1845.2699,1807.8955,434.4782,7.5526204,246.4575,197.54155,3.335835,37.37445,7.6279035
1385.1057,0.020265404,0.001786624,1865.208,1827.4088,439.03815,7.3157096,249.07518,197.88739,3.3324254,37.799194,7.389281
1400.1401,0.020275747,0.0017653701,1885.2537,1847.0287,443.6279,7.0833874,251.70656,198.2122,3.3281703,38.224926,7.1552854
1415.2568,0.020285243,0.0017440334,1905.4084,1866.7567,448.24423,6.8556457,254.35222,198.51622,3.323096,38.651676,6.9259086
1430.4524,0.02029392,0.0017226365,1925.6697,1886.5905,452.8882,6.6323895,257.0117,198.8001,3.317229,39.079388,6.7010555
1445.7313,0.020301796,0.0017010737,1946.0386,1906.5305,457.5559,6.414671,259.68536,199.05598,3.3103552,39.50808,6.4817753
1461.1018,0.020308891,0.0016791597,1966.5144,1926.5767,462.2397,6.204511,262.37292,199.26883,3.3020918,39.937725,6.2700896
1476.5571,0.020315226,0.0016572353,1987.0989,1946.7303,466.94714,5.998663,265.07443,199.46246,3.2930906,40.36836,6.0627503
1492.0934,0.020320825,0.0016353179,2007.7897,1966.9896,471.6796,5.797024,267.78995,199.63753,3.2833743,40.799942,5.8596544
