con,Omega,Theta,ygross,ynet,inv,Eind,scc,carbontax,Abatement,Dam,Emissions
77.66345,0.0028556,0.00032409138,105.17594,104.8756,27.178165,32.28485,17.7255,19.433693,0.034086615,0.3003404,34.88485
79.85953,0.0031179856,0.00033274735,108.67679,108.33794,28.442358,32.7721,18.166838,19.898901,0.036161914,0.33885264,35.31298
82.301575,0.0033555536,0.00034139174,112.34418,111.96719,29.627396,33.280582,18.651266,20.366518,0.038353376,0.3769769,35.763695
84.909645,0.003572986,0.00035025165,116.13566,115.72071,30.77053,33.794743,19.168865,20.844997,0.040676706,0.4149511,36.221394
87.58106,0.0037744523,0.00035973484,120.038826,119.58574,31.961655,34.30762,19.714632,21.34928,0.043182146,0.45308077,36.6791
90.45515,0.003963506,0.00036933785,124.08233,123.59053,33.08974,34.829018,20.288635,21.860992,0.0458283,0.49180105,37.14657
93.43317,0.004143101,0.00037908394,128.2268,127.69555,34.21397,35.346664,20.892557,22.381054,0.04860872,0.5312566,37.611523
96.490326,0.00431567,0.0003892946,132.47203,131.90033,35.358654,35.857952,21.530289,22.921207,0.051570654,0.57170564,38.071312
99.6889,0.004483178,0.00039963287,136.83171,136.21826,36.474907,36.367672,22.18653,23.469303,0.054682445,0.6134408,38.53071
102.961464,0.0046471986,0.0004100896,141.2803,140.62373,37.604607,36.86839,22.873438,24.025126,0.057937574,0.65655756,38.98224
106.322426,0.0048089875,0.00042076065,145.82343,145.12218,38.738686,37.360672,23.588268,24.592167,0.06135676,0.70126307,39.426464
109.780075,0.0049695377,0.00043162092,150.46043,149.7127,39.868023,37.84377,24.316788,25.1697,0.06494186,0.74771875,39.862583
113.30955,0.0051296274,0.00044263594,155.18001,154.384,41.006115,38.314846,25.057175,25.756504,0.06868825,0.7960157,40.287758
116.90324,0.005289863,0.00045381862,159.97903,159.13277,42.157307,38.772537,25.808882,26.353226,0.07260146,0.8462671,40.700592
120.55923,0.005450712,0.00046519184,164.85669,163.95808,43.322586,39.216526,26.571697,26.960703,0.07668998,0.89858633,41.100742
124.27796,0.0056125303,0.00047677953,169.8134,168.8603,44.501823,39.646305,27.345701,27.579977,0.08096355,0.9530828,41.487675
128.05983,0.0057755797,0.00048860785,174.84961,173.83974,45.69499,40.061855,28.130865,28.21199,0.085432895,1.0098579,41.861362
131.90492,0.0059400536,0.0005006881,179.9658,178.8968,46.90232,40.462795,28.927225,28.85734,0.09010674,1.0690066,42.22139
135.81458,0.00610609,0.00051304,185.16267,184.03204,48.12307,40.849194,29.734865,29.516726,0.09499586,1.13062,42.5678
139.7893,0.006273781,0.00052567344,190.44078,189.246,49.357212,41.22069,30.55383,30.190691,0.10010966,1.1947837,42.900223
143.82933,0.006443185,0.00053860014,195.80077,194.53915,50.605064,41.57734,31.384142,30.879692,0.10545831,1.2615803,43.218678
147.93568,0.0066143307,0.00055182533,201.24316,199.91208,51.86607,41.919056,32.225906,31.58402,0.11105107,1.3310888,43.523075
152.1086,0.006787224,0.000565357,206.76869,205.3653,53.140606,42.245705,33.07911,32.30409,0.11689812,1.4033854,43.81325
156.34653,0.006961857,0.0005793681,212.37785,210.89932,54.43061,42.556194,33.94638,33.04606,0.12304495,1.4785442,44.088097
160.62816,0.0071382043,0.000595355,218.0716,216.51495,55.757904,42.840748,34.850464,33.86248,0.12983002,1.5566396,44.33782
164.98415,0.007316227,0.00061176246,223.85341,222.21565,57.095554,43.11013,35.768032,34.69862,0.13694511,1.6377624,44.573166
169.39754,0.00749586,0.00062829116,229.72168,227.99973,58.458946,43.36556,36.69738,35.544285,0.14433211,1.7219616,44.795326
173.86174,0.0076770303,0.0006452177,235.67755,233.86826,59.855625,43.60559,37.64005,36.40915,0.15206334,1.8093038,45.00285
178.397,0.007859678,0.000662547,241.72183,239.82198,61.266075,43.829956,38.59612,37.293636,0.1601521,1.8998559,45.195442
183.00122,0.008043732,0.0006802763,247.85425,245.86058,62.6921,44.038692,39.56555,38.197674,0.16860937,1.993673,45.37313
187.6734,0.008229122,0.00069844315,254.07506,251.98424,64.134834,44.231407,40.549274,39.122765,0.17745697,2.0908144,45.535503
192.41463,0.00841577,0.0007170069,260.38464,258.1933,65.59355,44.408436,41.546524,40.067574,0.18669759,2.191337,45.682884
197.22517,0.008603602,0.00073596975,266.7837,264.4884,67.06856,44.569714,42.557323,41.032383,0.19634473,2.2953007,45.81518
202.10622,0.008792539,0.0007553263,273.27283,270.8701,68.55928,44.71531,43.581734,42.017155,0.20641015,2.4027622,45.932457
207.05762,0.008982502,0.00077508064,279.85275,277.339,70.06639,44.845318,44.61978,43.022137,0.21690845,2.513778,46.034794
212.0808,0.009173411,0.0007952236,286.524,283.8956,71.58903,44.959747,45.67166,44.047237,0.22785063,2.6284022,46.122177
217.1744,0.00936518,0.0008157733,293.2871,290.5404,73.12902,45.058514,46.737133,45.09325,0.23925582,2.7466867,46.19451
222.32663,0.009557726,0.0008370439,300.14188,297.2732,74.69775,45.13959,47.81263,46.17095,0.25123194,2.8686736,46.24976
227.52232,0.009750965,0.0008593477,307.07794,304.08365,76.30002,45.199303,48.90379,47.291103,0.26388672,2.9943066,46.28423
232.78737,0.00994481,0.00088273385,314.10718,310.98343,77.92153,45.239143,50.0122,48.455402,0.27727303,3.1237361,46.2994
238.13174,0.010139158,0.0009067121,321.23343,317.9764,79.55633,45.262814,51.13511,49.64736,0.29126623,3.2570367,46.29897
243.54292,0.010333906,0.0009311837,328.45197,325.05777,81.21216,45.270363,52.271873,50.8638,0.3058491,3.3941915,46.28295
249.02155,0.010528949,0.0009560674,335.76312,332.2279,82.88873,45.262302,53.42264,52.102234,0.3210122,3.5352328,46.251865
254.57137,0.010724192,0.000981364,343.16888,339.48865,84.584114,45.23896,54.587627,53.36286,0.33677357,3.6802087,46.206028
260.19366,0.010919541,0.0010070641,350.67023,346.84106,86.298096,45.200382,55.767,54.645718,0.35314742,3.8291578,46.14546
265.8896,0.011114903,0.0010331556,358.26797,354.2859,88.0303,45.14695,56.960945,55.950535,0.37014657,3.982114,46.070534
271.65863,0.011310188,0.0010596248,365.96234,361.82324,89.78124,45.07866,58.16929,57.27716,0.38778278,4.139103,45.98125
277.50198,0.011505304,0.0010864557,373.75427,369.4541,91.55074,44.995792,59.392395,58.625324,0.40606746,4.3001566,45.877857
283.41953,0.01170017,0.0011136399,381.64417,377.17886,93.33928,44.898544,60.630047,59.994934,0.42501417,4.4653015,45.76056
289.41254,0.011894705,0.0011411535,389.63248,384.99792,95.14603,44.78696,61.882545,61.385628,0.44463044,4.6345634,45.62937
295.47928,0.0120888185,0.0011690907,397.71988,392.9119,96.97325,44.66076,63.150158,62.800648,0.46497065,4.807963,45.484016
301.59915,0.012282432,0.0011986621,405.90628,400.92075,98.841034,44.512222,64.4375,64.2803,0.48654446,4.9855165,45.316757
307.78613,0.012475458,0.0012285346,414.18887,409.02167,100.733025,44.349644,65.73948,65.780685,0.5088453,5.167195,45.135887
314.04736,0.0126678,0.0012588301,422.5706,417.21756,102.645,44.172462,67.05672,67.306244,0.5319446,5.35304,44.94083
320.39233,0.012859364,0.0012900773,431.05212,425.5091,104.56782,43.97771,68.39122,68.87452,0.5560906,5.543057,44.728607
326.80334,0.013050059,0.001321567,439.63043,433.8932,106.51645,43.76939,69.740326,70.46264,0.58100104,5.7372026,44.503212
333.28714,0.013239792,0.0013532902,448.30884,442.3733,108.48757,43.54819,71.10466,72.070496,0.60669196,5.935516,44.265327
339.8468,0.013428471,0.0013852251,457.08908,450.95105,110.47961,43.31437,72.48434,73.69777,0.63317126,6.138007,44.015198
346.4837,0.013616022,0.0014173464,465.97192,459.62726,112.49207,43.068233,73.87959,75.344,0.66044366,6.3446836,43.753128
353.19785,0.013802362,0.0014496244,474.95798,468.4025,114.52562,42.81019,75.29041,77.00846,0.6885108,6.555542,43.479507
359.9903,0.013987415,0.0014820342,484.04755,477.27698,116.579346,42.540283,76.716866,78.69086,0.71737504,6.7705736,43.194386
366.86115,0.014171106,0.0015145349,493.2413,486.25153,118.6539,42.259,78.15909,80.39013,0.74703115,6.9897747,42.898224
373.81015,0.014353372,0.0015471035,502.53958,495.32648,120.74998,41.96669,79.61694,82.10575,0.7774808,7.2131376,42.591385
380.8375,0.014534144,0.001579703,511.94284,504.50217,122.86774,41.66358,81.0906,83.836975,0.8087176,7.4406514,42.27407
387.94516,0.0147133535,0.0016122998,521.4513,513.77905,125.0055,41.349915,82.58018,85.58314,0.8407359,7.6722984,41.946526
395.13232,0.014890948,0.0016448625,531.0661,523.15796,127.16515,41.026222,84.08564,87.34333,0.8735306,7.908078,41.60927
402.39902,0.015066862,0.0016773536,540.7869,532.639,129.34653,40.69272,85.60701,89.11682,0.9070909,8.147963,41.262505
409.74655,0.015241041,0.0017097521,550.6146,542.2227,131.54901,40.34966,87.14449,90.90318,0.9414144,8.39194,40.906494
417.17453,0.015413424,0.0017420419,560.54913,551.9091,133.77315,39.997265,88.69783,92.70225,0.97650003,8.639981,40.541435
424.68378,0.015583963,0.0017741636,570.5915,561.6994,136.01907,39.636044,90.26727,94.51236,1.0123227,8.8920765,40.167847
432.27438,0.015752602,0.0018060856,580.74194,571.5937,138.28703,39.26631,91.85293,96.33279,1.0488696,9.148196,39.786022
439.91455,0.015919289,0.0018400416,591.0009,581.59265,140.60791,38.87477,93.45344,98.23722,1.0874664,9.408315,39.382664
447.6183,0.016083982,0.0018744186,601.36475,591.6924,142.96501,38.471035,95.069336,100.17318,1.1272092,9.672339,38.967373
455.398,0.016246598,0.0019084972,611.8358,601.89557,145.34882,38.059635,96.701096,102.11744,1.1676868,9.94025,38.54469
463.2581,0.016407065,0.0019422409,622.4153,612.20325,147.75612,37.64123,98.348976,104.0688,1.2088804,10.2120075,38.115257
471.2002,0.016565325,0.0019756046,633.1047,622.6171,150.1869,37.21595,100.01323,106.026474,1.2507645,10.487585,37.6792
479.22406,0.016721318,0.0020085548,643.90424,633.13727,152.64156,36.78439,101.69387,107.98932,1.293317,10.766928,37.237106
487.3302,0.016875,0.0020410381,654.8141,643.76404,155.11993,36.34689,103.39083,109.95591,1.3365005,11.049988,36.78931
495.51947,0.017026333,0.0020730186,665.8352,654.4985,157.62222,35.903835,105.10423,111.92528,1.3802887,11.336732,36.336197
503.7924,0.017175278,0.002104462,676.9676,665.3405,160.148,35.455566,106.83423,113.896484,1.4246526,11.627106,35.878094
512.1487,0.01732181,0.002135323,688.2118,676.2907,162.69801,35.00241,108.58069,115.86832,1.4695544,11.921074,35.415333
520.60706,0.017465897,0.0021667713,699.5676,687.34906,165.25269,34.53771,110.34771,117.87989,1.515803,12.2185755,34.94124
529.16864,0.017607516,0.0021985967,711.0365,698.51685,167.8125,34.062767,112.135185,119.92479,1.5632824,12.519587,34.45713
537.81726,0.017746627,0.0022297467,722.6192,709.7951,170.39522,33.584156,113.93944,121.96781,1.6112577,12.824054,33.96955
546.5529,0.017883187,0.00226017,734.3151,721.1832,173.00034,33.102123,115.76072,124.007576,1.6596771,13.131895,33.478756
555.3424,0.018017162,0.0022910868,746.124,732.681,175.6599,32.60965,117.59053,126.08537,1.7094349,13.443037,32.97772
564.22375,0.018148521,0.0023213658,758.05054,744.29297,178.34148,32.113773,119.43689,128.16325,1.7597125,13.757496,32.47347
573.1938,0.01827723,0.0023508214,770.09204,756.0169,181.04585,31.61562,121.300125,130.23495,1.810349,14.07515,31.967138
582.25885,0.018403256,0.0023800419,782.2489,767.85297,183.76671,31.11184,123.18297,132.32066,1.861785,14.395927,31.455366
591.4125,0.018526586,0.0024090763,794.51886,779.79913,186.508,30.602146,125.08308,134.42238,1.9140565,14.719721,30.937859
600.64386,0.01864719,0.0024377394,806.9011,791.8547,189.28049,30.08791,126.997246,136.53372,1.9670148,15.046438,30.415989
609.95514,0.01876505,0.0024653857,819.39526,804.01935,192.08195,29.57293,128.92764,138.63278,2.0201254,15.375994,29.89355
619.35126,0.01888015,0.0024920197,832.0042,816.29584,194.9103,29.057514,130.8749,140.71947,2.0733707,15.708363,29.370844
628.8206,0.01899246,0.0025197242,844.72815,828.6847,197.7761,28.529528,132.83548,142.86629,2.1284819,16.043467,28.835737
638.3803,0.019101987,0.002546359,857.5692,841.1879,200.6656,28.001842,134.81319,144.99908,2.183679,16.381275,28.301088
648.01825,0.019208698,0.0025743595,870.5264,853.80475,203.58847,27.460089,136.8115,147.20349,2.2410479,16.721678,27.75253
657.67847,0.019312572,0.0026079582,883.6032,866.5385,206.60014,26.879696,138.81754,149.62961,2.3044002,17.06465,27.16549
667.4097,0.019413574,0.002644147,896.8089,879.39856,209.66357,26.278769,140.83807,152.17361,2.3712945,17.410265,26.55806
677.24194,0.019511586,0.0026856805,910.1419,892.38354,212.74503,25.64129,142.87497,154.93459,2.44435,17.75831,25.914232
687.2057,0.019606484,0.0027268524,923.61115,905.5024,215.82745,25.00148,144.93132,157.71095,2.518551,18.108768,25.268217
697.2767,0.01969809,0.0027665873,937.20624,918.74506,218.92659,24.36527,147.00601,160.46506,2.5928628,18.461174,24.625942
707.43994,0.019786296,0.0028047604,950.9206,932.10535,222.05107,23.733362,149.09784,163.19228,2.6671045,18.815197,23.988106
717.694,0.019871036,0.00284129,964.75366,945.58295,225.20229,23.106298,151.20665,165.88951,2.741145,19.170654,23.355253
728.0364,0.019952295,0.00287611,978.7046,959.1771,228.38211,22.484564,153.33235,168.55423,2.8148615,19.527401,22.727856
738.46765,0.020030066,0.0029091642,992.7734,972.8881,231.59016,21.868513,155.47507,171.18433,2.8881407,19.885317,22.106274
748.9863,0.020104375,0.0029404163,1006.96027,986.716,234.82834,21.258562,157.63445,173.77783,2.9608824,20.244307,21.490917
759.5956,0.020175258,0.002969816,1021.2658,1000.6615,238.09413,20.655148,159.81084,176.33246,3.0329714,20.604301,20.88222
770.29236,0.020242754,0.0029973523,1035.6892,1014.72394,241.39009,20.058401,162.00407,178.84744,3.1043253,20.965202,20.280308
781.13727,0.020306919,0.0030248403,1050.2312,1028.9042,244.65472,19.458042,164.21678,181.3889,3.1767817,21.326962,19.674904
792.0753,0.0203678,0.0030504523,1064.8925,1043.2029,247.94536,18.86476,166.4466,183.88956,3.2484035,21.689514,19.076689
803.10376,0.020425431,0.0030741398,1079.6721,1057.6194,251.26433,18.279112,168.69339,186.34653,3.3190632,22.05277,18.486223
814.22327,0.020479856,0.003095856,1094.5707,1072.154,254.61153,17.701359,170.95705,188.75777,3.388633,22.41665,17.90376
825.4318,0.020531122,0.003115625,1109.5867,1086.8055,257.98764,17.131712,173.23734,191.12265,3.4570556,22.781057,17.329514
836.73004,0.020579282,0.0031334036,1124.7218,1101.5758,261.39404,16.57051,175.53464,193.43892,3.5242069,23.145966,16.763813
848.11884,0.0206244,0.0031492258,1139.9747,1116.4634,264.82855,16.01781,177.84877,195.7065,3.590038,23.511293,16.206718
859.5974,0.020666523,0.0031630802,1155.3461,1131.469,268.29263,15.473891,180.17961,197.92384,3.6544523,23.876987,15.6585045
871.164,0.02070572,0.0031749886,1170.8358,1146.5929,271.7885,14.938776,182.52686,200.09071,3.7173903,24.242998,15.11919
882.8209,0.020742066,0.0031849544,1186.4436,1161.8342,275.31284,14.412667,184.89122,202.20593,3.7787688,24.609291,14.58898
894.5685,0.020775616,0.0031930178,1202.1699,1177.1941,278.86688,13.895632,187.27214,204.26942,3.8385503,24.975822,14.067935
906.40375,0.020806437,0.0031991892,1218.0134,1192.6709,282.45157,13.387821,189.66966,206.28018,3.8966553,25.342518,13.556207
918.3286,0.020834599,0.003203492,1233.9751,1208.2656,286.06616,12.889296,192.08385,208.23782,3.9530292,25.709377,13.053851
930.3425,0.020860163,0.0032059667,1250.0542,1223.9779,289.71133,12.400119,194.5146,210.14221,4.0076323,26.076336,12.560934
942.44666,0.0208832,0.003206645,1266.2513,1239.8079,293.38562,11.920348,196.96188,211.993,4.0604186,26.443382,12.077506
954.63995,0.020903777,0.0032055585,1282.5664,1255.756,297.09055,11.4499855,199.42592,213.79007,4.111342,26.810484,11.603571
966.92114,0.020921953,0.0032027345,1298.9987,1271.821,300.82654,10.989138,201.90622,215.53276,4.160348,27.177588,11.139231
979.29193,0.020937802,0.0031982386,1315.5487,1288.0039,304.5926,10.537714,204.4034,217.22188,4.207438,27.544697,10.684394
991.7511,0.020951383,0.0031920914,1332.215,1304.3033,308.38876,10.09586,206.91655,218.8565,4.2525516,27.911745,10.239205
1004.29846,0.020962764,0.0031843425,1348.9984,1320.7197,312.2157,9.6634655,209.44606,220.43715,4.295673,28.278734,9.803551
1016.9339,0.020972012,0.0031750326,1365.899,1337.2535,316.07373,9.2405615,211.99234,221.96373,4.336774,28.64565,9.377462
1029.6582,0.020979181,0.003164222,1382.9163,1353.9038,319.96146,8.827086,214.55453,223.43677,4.3758545,29.01245,8.960875
1042.4689,0.020984346,0.0031519518,1400.0493,1370.6702,323.88095,8.423044,217.13297,224.85614,4.412888,29.37912,8.55379
1055.3674,0.020987565,0.0031382712,1417.2986,1387.5529,327.8309,8.02835,219.72787,226.22234,4.447867,29.745644,8.156122
1068.3542,0.0209889,0.00312322,1434.6643,1404.5521,331.81116,7.6430087,222.33876,227.53534,4.4807725,30.112026,7.767876
1081.4684,0.020988414,0.003106512,1452.1454,1421.6671,335.78217,7.2691526,224.96912,228.77989,4.5111065,30.478228,7.391181
1094.7273,0.020986171,0.0030881835,1469.7474,1438.9031,339.73227,6.906831,227.62018,229.95543,4.53885,30.844372,7.0260844
1108.0874,0.020982236,0.0030686914,1487.4698,1456.2593,343.70316,6.553401,230.28828,231.08069,4.5645857,31.210442,6.6699433
1121.5392,0.020976664,0.0030480763,1505.3087,1473.7324,347.70135,6.2089415,232.9722,232.15515,4.588296,31.576359,6.3228335
1135.0792,0.020969545,0.0030263786,1523.2637,1491.3215,351.72894,5.8732777,235.67255,233.17958,4.609972,31.942144,5.98458
1148.708,0.020960923,0.0030036627,1541.3328,1509.025,355.7845,5.5463367,238.38885,234.15459,4.6296444,32.30776,5.6551085
1162.4213,0.020950861,0.002979869,1559.5173,1526.8444,359.87314,5.228698,241.12042,235.07574,4.647158,32.673233,5.3349967
1176.2131,0.020939413,0.0029548602,1577.8158,1544.7772,363.9996,4.9215465,243.865,235.93411,4.6622252,33.038536,5.0254283
1190.087,0.020926641,0.0029290076,1596.2252,1562.8215,368.15695,4.622694,246.62521,236.74564,4.675356,33.403633,4.724214
1204.0481,0.020912599,0.0029023462,1614.7488,1580.9801,372.34363,4.3320975,249.40115,237.51051,4.6865597,33.768593,4.431309
1218.0947,0.02089735,0.0028749339,1633.385,1599.2516,376.55917,4.049613,252.19264,238.22958,4.6958737,34.133415,4.146569
1232.2274,0.02088094,0.002846824,1652.134,1617.636,380.8033,3.7750554,255.0,238.90411,4.703335,34.49811,3.869807
1246.4459,0.020863423,0.0028180552,1670.9955,1636.1328,385.07617,3.5083733,257.82297,239.5343,4.7089577,34.862686,3.6009696
1260.748,0.020844847,0.002788684,1689.9679,1654.7407,389.37817,3.2493997,260.661,240.12134,4.7127867,35.227123,3.3398907
1275.136,0.02082526,0.0027587428,1709.0535,1673.4619,393.70935,2.998018,263.51462,240.6657,4.714839,35.59148,3.0864515
1289.609,0.020804709,0.0027282939,1728.249,1692.2933,398.06732,2.7541227,266.38354,241.16833,4.7151713,35.95572,2.8405457
1304.1667,0.020783238,0.0026973586,1747.5568,1711.2368,402.4544,2.5175915,269.26804,241.62967,4.7137876,36.31989,2.602049
1318.8083,0.020760888,0.0026659893,1766.9744,1730.2905,406.86908,2.2882802,272.1677,242.05075,4.710735,36.68396,2.3708174
1333.5323,0.020737704,0.0026342366,1786.5021,1749.454,411.31326,2.0660353,275.08218,242.43254,4.706069,37.047947,2.1466959
1348.3428,0.02071373,0.002602083,1806.1393,1768.7273,415.78217,1.8511356,278.01233,242.7727,4.699724,37.41188,1.9299625
1363.2537,0.020689,0.0025691388,1825.8859,1788.11,420.26236,1.6466019,280.95767,243.04752,4.690954,37.77575,1.7236362
1378.2487,0.020663565,0.002535943,1845.7434,1807.6036,424.77103,1.4486535,283.9182,243.28583,4.6807,38.139637,1.5239362
1393.329,0.020637464,0.0025025457,1865.7094,1827.2059,429.3042,1.2571278,286.89377,243.48882,4.669023,38.503513,1.3306987
1408.4923,0.020610742,0.002468953,1885.7838,1846.9161,433.864,1.0719788,289.8841,243.65639,4.655911,38.8674,1.1438769
1423.735,0.020583436,0.002435217,1905.9655,1866.7343,438.4534,0.89299035,292.88904,243.79016,4.6414394,39.23132,0.9632537
1439.0654,0.020555586,0.0024010085,1926.2538,1886.6586,443.0633,0.72290385,295.90936,243.86815,4.624952,39.595276,0.79156953
1454.4805,0.020527227,0.0023667063,1946.6511,1906.6917,447.69836,0.55884236,298.9444,243.9127,4.607151,39.959347,0.6259467
1469.9381,0.020498404,0.0023322592,1967.1544,1926.8309,452.3989,0.4013902,301.99338,243.91887,4.587914,40.323524,0.46696877
1485.442,0.020469155,0.0022971279,1987.769,1947.0812,457.1664,0.25504443,305.05054,243.85031,4.5661597,40.687954,0.3191319
1501.0544,0.020439506,0.0022619148,2008.4949,1967.4423,461.9376,0.115112215,308.12256,243.74397,4.543044,41.052643,0.17774251
