con,Omega,Theta,ygross,ynet,inv,Eind,scc,carbontax,Abatement,Dam,Emissions
77.27081,0.0028556,0.00033412268,105.17594,104.8756,27.569756,32.231068,19.072866,19.801683,0.035141665,0.3003404,34.83107
79.76742,0.0031179856,0.00034228832,108.71515,108.376175,28.571669,32.73199,19.631538,20.248108,0.037211925,0.33897227,35.272877
82.36704,0.0033554744,0.00035044787,112.36638,111.989334,29.583038,33.237595,20.22583,20.697313,0.039378557,0.3770425,35.720707
85.06379,0.0035727902,0.00035888673,116.1273,115.71241,30.607092,33.74457,20.853298,21.15977,0.041676547,0.41489846,36.17122
87.84926,0.003774108,0.000367323,119.99573,119.542854,31.64968,34.252926,21.510527,21.625296,0.044077188,0.4528768,36.6244
90.72394,0.003962981,0.00037529966,123.97054,123.47925,32.708977,34.763992,22.204472,22.077478,0.046526104,0.49129292,37.081547
93.68586,0.0041423654,0.00038422953,128.04979,127.51937,33.78451,35.26855,22.927784,22.567518,0.04920051,0.53042907,37.533405
96.73172,0.0043146876,0.00039412684,132.23099,131.66046,34.87685,35.764935,23.67919,23.09588,0.05211578,0.57053536,37.978294
99.858246,0.0044819014,0.00040498268,136.5116,135.89977,35.98649,36.251606,24.457449,23.662151,0.05528483,0.61183155,38.41464
103.063286,0.00464557,0.00041680006,140.88957,140.23505,37.11331,36.727272,25.261995,24.2663,0.058722775,0.65451235,38.84112
106.34466,0.00480693,0.0004295696,145.36316,144.6644,38.25761,37.191013,26.09204,24.90774,0.06244359,0.6987505,39.256805
109.6998,0.004966955,0.00044324773,149.9307,149.186,39.42007,37.641838,26.946356,25.584805,0.066456445,0.74469906,39.660652
113.1265,0.005126405,0.0004578034,154.59085,153.79836,40.601444,38.079277,27.82483,26.296106,0.070772216,0.79249537,40.052193
116.62447,0.005285869,0.00047323204,159.34213,158.49988,41.800392,38.502308,28.725868,27.041372,0.07540581,0.8422616,40.430367
120.192726,0.0054457965,0.00048952986,164.18361,163.28949,43.016834,38.910515,29.64908,27.820194,0.08037277,0.8941105,40.79473
123.830696,0.005606529,0.0005066897,169.11493,168.16678,44.250866,39.303257,30.59424,28.632227,0.08568879,0.9481477,41.144627
127.538315,0.0057683205,0.00052472844,174.1357,173.13123,45.50207,39.680218,31.561834,29.477781,0.09137395,1.0044706,41.47972
131.31514,0.0059313555,0.0005436416,179.24568,178.18251,46.770515,40.040817,32.551838,30.356625,0.09744542,1.06317,41.799404
135.16095,0.0060957577,0.0005634275,184.44489,183.32056,48.056297,40.385014,33.56378,31.268442,0.103921324,1.1243312,42.103615
139.07495,0.006261614,0.00058410503,189.73337,188.54533,49.360237,40.712215,34.59716,32.21382,0.11082421,1.1880372,42.39174
143.0543,0.006428973,0.0006057946,195.11177,193.8574,50.685646,41.021763,35.650013,33.19662,0.118197665,1.2543683,42.6631
147.10593,0.0065978467,0.000628542,200.58365,199.26022,52.029045,41.313877,36.726303,34.218166,0.12607524,1.32342,42.917896
151.22331,0.0067682345,0.00065253006,206.14923,204.75397,53.397026,41.587242,37.824467,35.284367,0.13451856,1.3952663,43.15479
155.401,0.00694011,0.0006775863,211.80798,210.338,54.794483,41.842606,38.941692,36.389168,0.14351818,1.4699707,43.374508
159.64954,0.007113435,0.0007036835,217.55983,216.01222,56.210686,42.079777,40.081745,37.531548,0.15309325,1.5475978,43.576847
163.9664,0.0072881547,0.000730954,223.40526,221.77705,57.648537,42.298138,41.24446,38.71559,0.16329896,1.6282119,43.76117
168.35106,0.007464208,0.00075916114,229.34123,227.6294,59.10553,42.498104,42.42878,39.933537,0.17410696,1.7118508,43.927868
172.80429,0.007641523,0.00078828953,235.3683,233.56972,60.581318,42.679993,43.63481,41.184742,0.18553837,1.7985722,44.077248
177.32668,0.007820021,0.0008183499,241.48718,239.59874,62.075993,42.84351,44.862896,42.4697,0.197621,1.888435,44.208996
181.91893,0.007999624,0.0008493587,247.69864,245.71718,63.58952,42.988785,46.113277,43.788857,0.210385,1.9814961,44.323227
186.57892,0.008180243,0.0008814099,254.00352,251.92569,65.12471,43.11524,47.385258,45.145264,0.22388121,2.0778103,44.41934
191.30438,0.008361788,0.0009145089,260.40134,258.2239,66.68336,43.22279,48.677895,46.539043,0.23813933,2.1774206,44.49724
196.09802,0.008544172,0.0009484544,266.89093,264.61057,68.261566,43.312218,49.992085,47.96399,0.25313386,2.280362,44.557682
200.961,0.008727295,0.000983265,273.47336,271.08667,69.85913,43.383556,51.328262,49.420856,0.2688968,2.3866827,44.600708
205.88586,0.008911066,0.0010196327,280.14978,277.65332,71.48435,43.433212,52.687126,50.931015,0.28564987,2.496433,44.62269
210.87407,0.009095383,0.0010575437,286.92102,284.31134,73.136604,43.461315,54.068996,52.4939,0.3034315,2.6096566,44.62374
215.93324,0.00928014,0.0010964232,293.78787,291.0615,74.8091,43.471153,55.47396,54.091908,0.32211584,2.7263923,44.607147
221.0643,0.009465229,0.0011362751,300.75146,297.9048,76.50198,43.462933,56.902336,55.725254,0.34173644,2.8466814,44.5731
226.26788,0.009650543,0.0011770999,307.81253,304.84198,78.21526,43.43663,58.354435,57.39424,0.3623261,2.970558,44.521557
231.54482,0.009835975,0.0012188989,314.9721,311.87405,79.94905,43.392376,59.83064,59.099106,0.38391912,3.0980575,44.452637
236.89903,0.01002142,0.0012618487,322.23102,319.00177,81.70024,43.329327,61.333622,60.845325,0.4066068,3.2292125,44.36548
242.31087,0.010206774,0.0013063578,329.58777,326.22375,83.4867,43.245228,62.857777,62.645058,0.43055952,3.3640275,44.257816
247.78096,0.010391935,0.0013515769,337.0375,333.53503,85.30327,43.143898,64.40008,64.473434,0.45553207,3.502472,44.133465
253.31969,0.010576792,0.0013977012,344.5816,340.93704,87.14081,43.02462,65.96513,66.33649,0.48162213,3.6445677,43.991684
258.93256,0.010761239,0.0014458923,352.22168,348.43134,88.99498,42.88148,67.55873,68.26845,0.50927466,3.7903419,43.82656
264.61575,0.010945174,0.0014947974,359.9591,356.01932,90.87135,42.721935,69.17527,70.22991,0.53806597,3.9398148,43.645523
270.37064,0.011128478,0.0015444077,367.79507,363.7021,92.76973,42.546093,70.815414,72.22116,0.56802547,4.092999,43.448685
276.19833,0.011311043,0.0015947042,375.73096,371.48105,94.69029,42.35425,72.47954,74.242096,0.5991797,4.249909,43.23632
282.09995,0.011492762,0.001645687,383.76773,379.35718,96.632935,42.146652,74.16812,76.29311,0.63156164,4.4105515,43.008663
288.07617,0.011673543,0.0016973289,391.90656,387.33163,98.59802,41.923374,75.881584,78.3741,0.66519433,4.574938,42.765785
294.1282,0.011853291,0.001749605,400.14862,395.40555,100.58554,41.684906,77.62038,80.48463,0.70010203,4.7430773,42.50816
300.25656,0.012031912,0.0018024874,408.49454,403.57956,102.59555,41.43138,79.38467,82.62452,0.7363063,4.9149704,42.235916
306.4623,0.012209313,0.0018559617,416.94553,411.85495,104.62819,41.163116,81.17511,84.79378,0.7738349,5.0906186,41.949356
312.7462,0.012385408,0.0019099729,425.50238,420.23236,106.683525,40.880318,82.99185,86.99152,0.81269807,5.2700214,41.64868
319.10916,0.012560115,0.0019644883,434.16608,428.7129,108.761505,40.58344,84.8353,89.21719,0.85291415,5.453176,41.33433
325.54932,0.012733345,0.0020205816,442.9375,437.29742,110.86451,40.267212,86.69299,91.50146,0.8949914,5.6400757,41.001034
332.04883,0.012905016,0.002077557,451.80942,445.97876,113.00342,39.934677,88.56907,93.825035,0.9386597,5.8306074,40.65181
338.60858,0.013075038,0.0021355555,460.7857,454.76093,115.18112,39.585518,90.46615,96.19242,0.98403347,6.0247903,40.286346
345.24908,0.013243319,0.0021939666,469.87204,463.64935,117.383064,39.223236,92.39035,98.587166,1.0308836,6.222665,39.90813
351.9708,0.0134097645,0.002252724,479.06897,472.64474,119.60922,38.848316,94.34175,101.00791,1.0792102,6.4242015,39.517635
358.75854,0.013574292,0.0023122833,488.37692,481.74756,121.875046,38.458527,96.29866,103.467995,1.1292658,6.629371,39.11263
365.62024,0.013736817,0.0023716066,497.789,490.95096,124.16632,38.058357,98.278824,105.93929,1.1805596,6.838036,38.697586
372.5576,0.013897258,0.0024307687,507.30637,500.25623,126.482605,37.647755,100.2836,108.424385,1.2331444,7.0501676,38.27245
379.57397,0.0140555445,0.0024900252,516.9308,509.665,128.82196,37.2256,102.31562,110.931015,1.2871706,7.2657433,37.836094
386.66916,0.014211606,0.0025490024,526.66394,519.1792,131.18669,36.79378,104.37311,113.449684,1.3424677,7.48474,37.390392
393.8438,0.014365389,0.0026076701,536.5074,528.8003,133.57756,36.352783,106.45648,115.97983,1.3990344,7.707138,36.935825
401.09888,0.014516825,0.0026659817,546.46173,538.5289,135.99431,35.902836,108.56599,118.520935,1.4568571,7.932889,36.472626
408.43527,0.014665867,0.0027238657,556.528,548.3661,138.43709,35.444424,110.70221,121.07157,1.5159075,8.161966,36.00126
415.8538,0.014812467,0.0027812899,566.70715,558.3128,140.90616,34.977825,112.86536,123.631424,1.5761769,8.394331,35.522
423.35507,0.01495657,0.0028381762,577.00006,568.3701,143.40186,34.50352,115.05552,126.1988,1.6376278,8.629942,35.035324
430.93958,0.015098136,0.0029016517,587.40735,578.5386,145.92029,33.989178,117.31437,128.96924,1.7044514,8.868756,34.50888
438.60715,0.01523712,0.0029689264,597.9292,588.8185,148.46324,33.447857,119.62666,131.86687,1.7752078,9.11072,33.95575
446.35764,0.015373409,0.0030356094,608.5652,599.2095,151.03291,32.899696,121.96778,134.7722,1.8473663,9.355722,33.396038
454.18048,0.015506865,0.0031031189,619.31696,609.7133,153.64076,32.338394,124.340515,137.7247,1.9218142,9.603664,32.82345
462.06705,0.015637398,0.0031730349,630.1841,620.32965,156.29425,31.757242,126.744286,140.76775,1.9995962,9.85444,32.231266
470.0368,0.015764905,0.0032419888,641.1665,631.0586,158.97588,31.17117,129.17715,143.81052,2.0786545,10.107929,31.634418
478.10117,0.015889294,0.0033137829,652.26495,641.90094,161.6727,30.563644,131.65678,146.957,2.1614642,10.36403,31.01636
486.23578,0.016010497,0.0033863422,663.47906,652.85645,164.40987,29.94401,134.17833,150.15134,2.246767,10.622629,30.386433
494.42627,0.016128413,0.0034600152,674.8064,663.92285,167.1994,29.310797,136.72604,153.40367,2.3348405,10.883556,29.743155
502.704,0.016242962,0.0035325503,686.2542,675.10736,170.01857,28.674372,139.30528,156.65326,2.4242272,11.146801,29.096903
511.0701,0.016354067,0.003603777,697.8227,686.41046,172.86667,28.035461,141.91624,159.89621,2.5147972,11.412238,28.448385
519.524,0.016461676,0.0036735889,709.51215,697.8324,175.74483,27.394743,144.55887,163.12988,2.6064558,11.67976,27.798279
528.06696,0.016565757,0.0037418255,721.3233,709.3741,178.65273,26.752857,147.23344,166.35071,2.699066,11.949266,27.147217
536.69916,0.01666628,0.0038084001,733.2567,721.036,181.59087,26.110403,149.93997,169.5564,2.7925348,12.220661,26.495796
545.4215,0.016763246,0.0038731878,745.3127,732.8188,184.55896,25.46788,152.67882,172.74423,2.886736,12.493859,25.84451
554.2293,0.01685665,0.0039359787,757.49133,744.7226,187.56201,24.82634,155.45265,175.90857,2.98147,12.768767,25.194407
563.12463,0.016946502,0.0039966395,769.7921,756.7469,190.59781,24.186443,158.25974,179.0459,3.0765815,13.045282,24.546139
572.1088,0.017032815,0.004055113,782.21466,768.8913,193.66452,23.548536,161.09853,182.1547,3.1719687,13.323318,23.900055
581.18274,0.017115604,0.0041113207,794.76013,781.1573,196.76297,22.913107,163.96918,185.23282,3.2675135,13.602799,23.256632
590.3467,0.017194891,0.004165208,807.42865,793.54504,199.89308,22.280468,166.87225,188.27884,3.3631084,13.883647,22.616182
599.60046,0.017270708,0.004216681,820.2202,806.05444,203.05513,21.6513,169.8071,191.28957,3.458607,14.165784,21.97938
608.94507,0.017343078,0.0042657023,833.13586,818.68677,206.24939,21.025814,172.77457,194.26411,3.55391,14.449141,21.346436
618.38165,0.017412037,0.004312219,846.17615,831.44244,209.47545,20.404474,175.7746,197.20033,3.648897,14.733649,20.717804
627.909,0.017477615,0.004356199,859.341,844.3218,212.73476,19.787622,178.807,200.09691,3.7434604,15.019231,20.09383
637.52795,0.017539848,0.0043975804,872.6304,857.3246,216.02646,19.175695,181.8719,202.95157,3.8374622,15.305804,19.474941
647.23914,0.017598769,0.0044363304,886.0452,870.4519,219.35115,18.568983,184.96962,205.76294,3.930789,15.593305,18.861423
657.043,0.017654428,0.0044724434,899.5855,883.70386,222.7086,17.967884,188.10013,208.52965,4.023345,15.881667,18.253675
666.9399,0.017706865,0.004505852,913.25165,897.08075,226.09879,17.37276,191.26372,211.24944,4.1149764,16.170824,17.652054
676.92926,0.017756114,0.004536565,927.04395,910.5833,229.52309,16.78382,194.45981,213.92163,4.205595,16.4607,17.056759
687.01135,0.01780223,0.0045645623,940.96185,924.21063,232.98056,16.201513,197.68883,216.54419,4.295079,16.751219,16.46825
697.1877,0.017845256,0.0045898636,955.0072,937.9648,236.47198,15.625913,200.951,219.11703,4.3833528,17.042349,15.886584
707.4573,0.01788524,0.004612437,969.17865,951.84454,239.997,15.057459,204.24608,221.63791,4.4702754,17.333992,15.312203
717.82104,0.017922234,0.004632307,983.47705,965.85095,243.55579,14.4963255,207.5742,224.1062,4.555768,17.626106,14.745278
728.2786,0.017956292,0.0046495046,997.90283,979.9842,247.14912,13.942663,210.93526,226.52164,4.639754,17.918634,14.185953
738.8307,0.01798746,0.0046639917,1012.4556,994.244,250.7761,13.396842,214.32982,228.8819,4.7220845,18.211504,13.634602
749.47736,0.0180158,0.004675814,1027.1356,1008.6309,254.43744,12.859033,217.7571,231.1866,4.802695,18.50467,13.091387
760.2183,0.018041361,0.0046849796,1041.9429,1023.14484,258.13315,12.329489,221.21735,233.43446,4.881481,18.798069,12.556559
771.0542,0.018064193,0.0046915435,1056.8778,1037.7861,261.86322,11.808223,224.71095,235.6259,4.9583883,19.091646,12.030129
781.9847,0.01808436,0.004695524,1071.9404,1052.5552,265.6282,11.295512,228.23726,237.75949,5.0333223,19.385359,11.512374
793.0107,0.018101923,0.00469697,1087.1309,1067.4517,269.42725,10.791403,231.797,239.83531,5.106221,19.67916,11.003334
804.1315,0.018116929,0.004695932,1102.4489,1082.4758,273.2611,10.296093,235.38957,241.8527,5.177025,19.972988,10.503204
815.34766,0.018129446,0.004692424,1117.8948,1097.6279,277.1297,9.80967,239.01524,243.81108,5.2456365,20.266811,10.012073
826.65796,0.018139536,0.004686524,1133.4673,1112.9067,281.03305,9.332274,242.67355,245.7103,5.3120217,20.56057,9.530073
838.0647,0.018147254,0.004678259,1149.1685,1128.3142,284.97104,8.8639965,246.36519,247.54979,5.3761077,20.854254,9.0573
849.5666,0.018152663,0.0046677296,1164.9973,1143.8495,288.94376,8.404763,250.08954,249.33064,5.4378924,21.147804,8.593672
861.1637,0.01815582,0.004654962,1180.9537,1159.5126,292.9514,7.9547744,253.84673,251.05179,5.497295,21.441185,8.139387
872.85657,0.018156793,0.004640017,1197.0381,1175.3038,296.99377,7.514019,257.63672,252.71349,5.5542774,21.734373,7.6944337
884.64496,0.01815563,0.0046229563,1213.25,1191.2227,301.07074,7.0825443,261.45978,254.3158,5.608802,22.027319,7.2588573
896.52893,0.018152406,0.0046038516,1229.5901,1207.27,305.18295,6.660393,265.31555,255.85873,5.66085,22.320019,6.8326964
908.5078,0.018147176,0.004582772,1246.0569,1223.4443,309.32977,6.247556,269.20364,257.34268,5.7103944,22.612411,6.4159417
920.58264,0.01814,0.0045597805,1262.6514,1239.7468,313.5113,5.844012,273.12485,258.768,5.757413,22.904493,6.008569
932.7524,0.018130938,0.004534949,1279.3728,1256.1765,317.72748,5.44979,277.0781,260.13483,5.80189,23.196228,5.6106052
945.01807,0.018120047,0.0045083375,1296.2214,1272.7339,321.9779,5.0649123,281.06427,261.44315,5.8438034,23.487593,5.2220707
957.3794,0.018107396,0.0044800257,1313.1979,1289.4193,326.2634,4.6892548,285.08273,262.694,5.8831606,23.778595,4.84284
969.83563,0.01809304,0.004450086,1330.3009,1306.2317,330.58328,4.322785,289.13358,263.88788,5.9199533,24.06919,4.472878
982.38727,0.018077035,0.0044185743,1347.531,1323.1716,334.9379,3.9655724,293.21674,265.02444,5.9541664,24.359364,4.112252
995.03357,0.01805944,0.0043855803,1364.8868,1340.2378,339.32654,3.6174908,297.3318,266.10486,5.9858212,24.649092,3.7608356
1007.7752,0.018040318,0.0043511814,1382.3696,1357.4313,343.74966,3.278376,301.47913,267.13034,6.0149417,24.938389,3.4184618
1020.61145,0.018019725,0.004315413,1399.9788,1374.7515,348.20737,2.948361,305.6584,268.10007,6.041487,25.227234,3.0852616
1033.5428,0.017997708,0.004278377,1417.7139,1392.1984,352.69916,2.6272573,309.86948,269.01562,6.0655146,25.515602,2.7610452
1046.5688,0.017974332,0.00424015,1435.5745,1409.771,357.22458,2.3149462,314.1127,269.8779,6.087051,25.803493,2.4456918
1059.6892,0.01794965,0.004200771,1453.5604,1427.4696,361.78397,2.0114584,318.38727,270.6867,6.106075,26.090902,2.1392317
1072.9039,0.017923715,0.0041603246,1471.6721,1445.2942,366.37744,1.7166206,322.69357,271.44348,6.122633,26.377829,1.8414882
1086.213,0.017896583,0.004118886,1489.9084,1463.2443,371.0043,1.4303377,327.03146,272.14893,6.136763,26.664272,1.5523661
1099.6161,0.017868305,0.004076505,1508.2703,1481.3201,375.66544,1.1525574,331.40082,272.80338,6.1484714,26.950232,1.2718112
1113.1122,0.017838936,0.0040332554,1526.7552,1499.5197,380.35944,0.88313246,335.8008,273.40808,6.157794,27.235691,0.99967474
1126.6937,0.01780852,0.00398861,1545.3644,1517.8438,385.09595,0.62538105,340.2274,273.93823,6.1638565,27.52065,0.73927355
1140.3605,0.017777108,0.0039417585,1564.1041,1536.2991,389.88278,0.38413695,344.67154,274.35712,6.1653214,27.805246,0.4954398
1154.1322,0.017744757,0.0038874669,1582.9792,1554.8896,394.71274,0.19018538,349.12244,274.43234,6.1537786,28.089582,0.29895747
1168.0635,0.017711548,0.0038123587,1601.992,1573.6182,399.55554,0.123345256,353.57346,273.5595,6.1073685,28.373756,0.22964403
1182.0984,0.017677646,0.0037313073,1621.1279,1592.4705,404.42996,0.10074189,358.0208,272.36047,6.0489264,28.657728,0.20462367
1196.2288,0.017643474,0.003650631,1640.3789,1611.437,409.32553,0.0861695,362.49088,271.1078,5.988418,28.941984,0.18768926
1210.4452,0.017609434,0.0035713646,1659.7457,1630.5187,414.2502,0.07341296,366.98715,269.84833,5.927557,29.227182,0.1726244
1224.7212,0.017575793,0.0034931055,1679.2283,1649.7144,419.23053,0.06488878,371.4942,268.56366,5.865721,29.513765,0.16184436
1239.0856,0.017542731,0.0034163545,1698.8359,1669.0336,424.24606,0.05737683,376.02975,267.2782,5.8038254,29.802221,0.15212789
1253.546,0.017510355,0.003341242,1718.57,1688.4772,429.2894,0.049873993,380.59753,265.99942,5.742158,30.092768,0.1424706
1268.0995,0.017478727,0.0032677532,1738.4271,1708.0417,434.36075,0.042286053,385.19672,264.72806,5.6807513,30.385494,0.13277726
1282.746,0.01744787,0.0031958397,1758.4088,1727.7281,439.4608,0.03462027,389.82718,263.4639,5.6195927,30.680489,0.12305386
1297.4843,0.017417792,0.0031254925,1778.512,1747.5343,444.58813,0.026867678,394.4888,262.20734,5.558726,30.977755,0.113290526
1312.3127,0.01738848,0.003056651,1798.7372,1767.46,449.74472,0.019065041,399.1804,260.95767,5.498112,31.277306,0.10352276
1327.2311,0.017359912,0.0029892912,1819.0819,1787.5027,454.92825,0.011225789,403.9025,259.71506,5.4377656,31.5791,0.09376312
1342.2378,0.017332062,0.0029233724,1839.5461,1807.663,460.14062,0.0034598026,408.65372,258.4785,5.3776784,31.883127,0.0841204
1357.3326,0.0173049,0.0028582783,1860.128,1827.9387,465.38126,0.0,413.43448,257.21564,5.316764,32.189327,0.07882659
1372.5143,0.017278401,0.0027941125,1880.8273,1848.3296,470.65088,0.0,418.24408,255.93274,5.255243,32.497692,0.07703425
1387.784,0.017252548,0.0027313381,1901.6447,1868.8363,475.94803,0.0,423.08267,254.65625,5.1940346,32.808212,0.07528265
1403.1393,0.01722733,0.0026699363,1922.5773,1889.4563,481.27246,0.0,427.94986,253.38615,5.1331587,33.120872,0.073570944
1418.5803,0.017202733,0.0026098613,1943.6254,1910.1897,486.6241,0.0,432.84534,252.12239,5.0725927,33.435665,0.07189812
1434.1077,0.017178738,0.0025510928,1964.7898,1931.0371,492.00323,0.0,437.76944,250.8649,5.0123606,33.75261,0.070263304
1449.7192,0.017155329,0.0024936064,1986.0681,1951.9965,497.4096,0.0,442.72144,249.61372,4.952472,34.071648,0.06866569
1465.416,0.017132485,0.0024373673,2007.4608,1973.0681,502.84293,0.0,447.7018,248.36877,4.8929195,34.39279,0.067104384
1481.1957,0.017110182,0.0023823571,2028.9669,1994.2509,508.3043,0.0,452.70908,247.12999,4.8337235,34.715992,0.06557857
1497.0603,0.017088408,0.0023285467,2050.5857,2015.5443,513.7908,0.0,457.7451,245.89742,4.774884,35.04124,0.0640875
1513.0083,0.017067142,0.002275911,2072.317,2036.9485,519.30414,0.0,462.80795,244.67102,4.7164083,35.368526,0.06263029
