con,Omega,Theta,ygross,ynet,inv,Eind,scc,carbontax,Abatement,Dam,Emissions
77.11079,0.0028556,0.00014813399,105.17594,104.8756,27.749283,33.470592,18.291817,12.003743,0.015580132,0.3003404,36.070595
79.70158,0.0031179856,0.00016249556,108.72541,108.386406,28.667217,33.925667,18.843174,12.801958,0.017667394,0.33900425,36.46655
82.36018,0.003347494,0.00017609024,112.36213,111.986,29.606106,34.386723,19.4172,13.551356,0.019785875,0.37613153,36.86983
85.08813,0.0035513986,0.00018914086,116.09205,115.679756,30.56974,34.852165,20.014154,14.266851,0.021957751,0.41228914,37.278812
87.88891,0.0037358473,0.00020188182,119.91891,119.4709,31.557877,35.32005,20.636627,14.9620905,0.024209445,0.4479987,37.691525
90.76466,0.0039058456,0.00021452476,123.845184,123.361465,32.57034,35.788284,21.286245,15.648477,0.026567858,0.48372012,38.105835
93.7164,0.0040653744,0.00022725352,127.87214,127.352295,33.60695,36.254913,21.963932,16.335289,0.029059393,0.5198481,38.519768
96.7445,0.004217551,0.00024022462,132.0004,131.44368,34.667603,36.718052,22.670084,17.03003,0.031709746,0.5567184,38.93141
99.848755,0.0043647876,0.00025356942,136.22987,135.63525,35.752113,37.17582,23.404802,17.738718,0.03454373,0.5946145,39.338852
103.0287,0.0045089307,0.00026740003,140.5601,139.92633,36.86022,37.626507,24.167908,18.466223,0.037585776,0.6337758,39.74036
106.28359,0.004651388,0.0002818131,144.99039,144.31598,37.991722,38.068714,24.959074,19.216503,0.040860187,0.6744066,40.134502
109.6126,0.0047932216,0.00029688978,149.51978,148.80309,39.146324,38.50076,25.777897,19.992798,0.044390894,0.71668136,40.519573
113.014885,0.004935223,0.00031270285,154.1474,153.38666,40.32381,38.92156,26.623924,20.797745,0.04820233,0.76075184,40.894478
116.48957,0.00507798,0.00032931558,158.87228,158.06555,41.523914,39.329704,27.49667,21.633615,0.05231912,0.8067503,41.257763
120.03571,0.0052219224,0.00034678643,163.69336,162.83856,42.74638,39.724285,28.395668,22.502281,0.056766637,0.854794,41.608505
123.65244,0.0053673554,0.00036517004,168.6098,167.7048,43.99113,40.104107,29.320436,23.405535,0.061571244,0.90498877,41.94548
127.33904,0.0055144886,0.0003845203,173.6209,172.66345,45.25802,40.468506,30.270596,24.344923,0.066760756,0.9574304,42.268013
131.09558,0.0056634643,0.0004048802,178.72585,177.71365,46.546112,40.81645,31.245674,25.321693,0.072362565,1.0122075,42.57504
134.9224,0.005814364,0.0004263098,183.92416,182.85477,47.85442,41.147385,32.24523,26.337543,0.07840867,1.0694021,42.86599
138.81784,0.0059672287,0.00044883735,189.21544,188.08635,49.18409,41.460567,33.269215,27.39309,0.084926955,1.1290919,43.1401
142.7815,0.0061220634,0.00047250095,194.59933,193.40799,50.535103,41.75563,34.317413,28.489176,0.091948375,1.1913494,43.396973
146.81297,0.0062788483,0.00049734255,200.07536,198.8191,51.907246,42.03202,35.38961,29.626835,0.09950598,1.2562429,43.63604
150.91585,0.0064375475,0.0005234364,205.6435,204.31966,53.296852,42.289013,36.48907,30.80828,0.107641295,1.3238398,43.856564
155.08646,0.006598101,0.00055078906,211.30371,209.90948,54.70742,42.526543,37.612495,32.033188,0.11638377,1.3942032,44.058445
159.32455,0.006760441,0.00057943165,217.05586,215.58846,56.138985,42.74413,38.759743,33.30224,0.12576903,1.4673935,44.2412
163.62996,0.006924493,0.0006094042,222.9001,221.35663,57.591778,42.94171,39.930695,34.616245,0.13583624,1.5434703,44.404747
168.00244,0.007090169,0.00064074056,228.8364,227.21391,59.06587,43.11877,41.12524,35.976063,0.14662477,1.6224886,44.54854
172.44226,0.00725738,0.0006734698,234.865,233.16049,60.56119,43.275402,42.34341,37.382122,0.15817448,1.7045045,44.672665
176.94943,0.007426031,0.0007076122,240.98611,239.19655,62.077827,43.411224,43.58516,38.83484,0.17052472,1.7895703,44.77671
181.5239,0.007596021,0.0007432006,247.19992,245.32219,63.61596,43.52626,44.850468,40.33485,0.18371914,1.8777359,44.860703
186.16573,0.0077672484,0.0007802557,253.50662,251.53757,65.175575,43.620316,46.13933,41.882557,0.1978,1.9690489,44.924408
190.87503,0.007939608,0.00081879675,259.90656,257.843,66.756836,43.693443,47.45177,43.478218,0.21281062,2.0635562,44.967888
195.6521,0.008112995,0.0008588408,266.40018,264.23886,68.35983,43.745567,48.787872,45.122173,0.22879535,2.1613033,44.99103
200.49706,0.0082873,0.0009004032,272.9878,270.72546,69.98464,43.776672,50.147705,46.81467,0.2457991,2.262332,44.993824
205.41006,0.008462419,0.00094349583,279.66998,277.3033,71.63161,43.78692,51.531322,48.555855,0.26386747,2.3666847,44.97639
210.39148,0.008638242,0.0009881218,286.44714,283.97272,73.300644,43.776295,52.938835,50.345715,0.28304467,2.4743998,44.938725
215.44147,0.008814657,0.0010342856,293.31967,290.73413,74.991974,43.74488,54.370323,52.1843,0.30337632,2.5855122,44.88088
220.56015,0.008991559,0.001081987,300.28802,297.58795,76.70582,43.69292,55.82586,54.071465,0.32490775,2.7000573,44.80309
225.74796,0.009168837,0.0011312163,307.3527,304.5346,78.442184,43.620464,57.305546,56.00697,0.34768236,2.8180666,44.705387
231.0053,0.009346387,0.0011819662,314.51434,311.57477,80.20122,43.52773,58.809635,57.990616,0.3717453,2.9395726,44.587986
236.3318,0.009524097,0.0012341416,321.77338,318.7088,81.98366,43.41532,60.338562,60.019657,0.39711392,3.0646007,44.451473
241.72787,0.009701864,0.0012877808,329.13,325.9368,83.7892,43.283195,61.89194,62.09534,0.4238473,3.1931744,44.295784
247.19415,0.009879583,0.0013428659,336.5848,333.25946,85.6178,43.13152,63.46988,64.21741,0.45198822,3.3253174,44.121086
252.73053,0.010057146,0.001399365,344.1382,340.6772,87.46991,42.96063,65.07241,66.38507,0.48157498,3.4610484,43.927696
258.33774,0.010234452,0.0014572357,351.79095,348.19055,89.34543,42.770733,66.69974,68.59754,0.5126423,3.6003876,43.71581
264.01614,0.010411405,0.001516442,359.54376,355.80038,91.24469,42.56231,68.35212,70.85399,0.5452273,3.7433555,43.4859
269.76596,0.010587901,0.001576937,367.3969,363.50693,93.16774,42.335617,70.029655,73.15351,0.57936186,3.8899622,43.23821
275.58783,0.010763842,0.0016386603,375.3514,371.3112,95.11491,42.09109,71.73252,75.49483,0.61507344,4.040223,42.97316
281.48193,0.010939131,0.0017015579,383.40762,379.2135,97.08631,41.829205,73.460915,77.8768,0.6523903,4.194146,42.691216
287.44888,0.011113672,0.0017655595,391.56616,387.21445,99.08194,41.550205,75.215004,80.29818,0.6913334,4.3517375,42.392612
293.48892,0.0112873735,0.0018306016,399.8279,395.31488,101.102295,41.254723,76.99493,82.757545,0.73192555,4.5130067,42.077976
299.6025,0.01146015,0.0018966062,408.1931,403.51517,103.147354,40.943104,78.80089,85.25346,0.7741816,4.6779547,41.74764
305.79007,0.011631911,0.001963497,416.66257,411.81595,105.21729,40.615913,80.63307,87.78433,0.81811565,4.8465815,41.402153
312.05215,0.011802569,0.0020311796,425.23685,420.21796,107.312256,40.2735,82.4917,90.34846,0.8637324,5.0188866,41.041862
318.38907,0.011972045,0.0020995724,433.91666,428.7218,109.4326,39.91653,84.3769,92.944084,0.9110396,5.1948695,40.667423
324.8013,0.012140258,0.00216858,442.70273,437.3282,111.5785,39.545353,86.28886,95.56959,0.9600363,5.3745255,40.27917
331.28915,0.012307128,0.0022381053,451.5953,446.03745,113.75001,39.16066,88.22774,98.22287,1.0107177,5.557842,39.877792
337.85312,0.012472582,0.0023080388,460.59503,454.85025,115.94732,38.762917,90.19374,100.901855,1.0630711,5.7448096,39.463745
344.49365,0.012636547,0.002378282,469.70288,463.7675,118.17085,38.3527,92.18703,103.60468,1.1170859,5.9354234,39.037594
351.2104,0.012798955,0.0024484762,478.9192,472.78952,120.42147,37.931744,94.20373,106.32242,1.1726222,6.1296654,38.601067
358.00296,0.01295974,0.0025186199,488.24316,481.91568,122.699,37.499847,96.24557,109.05612,1.229699,6.327504,38.153954
364.87186,0.013118843,0.0025887112,497.6753,491.14633,125.00304,37.05716,98.31404,111.806465,1.2883376,6.528923,37.69639
371.81757,0.013276205,0.002658641,507.21597,500.48206,127.333885,36.604332,100.409355,114.57116,1.348505,6.7339034,37.229027
378.8406,0.01343177,0.002728294,516.866,509.92358,129.69174,36.14186,102.53184,117.3481,1.4101626,6.942426,36.75235
385.94147,0.013585487,0.0027975487,526.62604,519.4715,132.0768,35.670307,104.681694,120.13496,1.4732618,7.154472,36.266914
393.12106,0.013737309,0.0028663077,536.4971,529.127,134.48932,35.19036,106.8592,122.92959,1.5377657,7.3700256,35.773407
400.37805,0.013887183,0.0029345825,546.47925,538.8902,136.93077,34.701954,109.065285,125.73321,1.6036884,7.589058,35.271744
407.70926,0.014035067,0.0030026634,556.5736,548.7621,139.40508,34.203953,111.30229,128.5541,1.6712031,7.8115478,34.760784
415.12012,0.014180923,0.0030699198,566.78033,558.74286,141.90744,33.699173,113.56755,131.37628,1.7399701,8.037468,34.243343
422.61136,0.014324704,0.0031362206,577.10046,568.8337,144.43834,33.188297,115.86134,134.19696,1.8099145,8.266794,33.720097
430.18314,0.014466366,0.0032014642,587.5343,579.0348,146.9979,32.671852,118.18379,137.01405,1.8809702,8.499487,33.19156
437.8365,0.014605877,0.0032655362,598.0829,589.34735,149.58635,32.150444,120.53524,139.82504,1.9530613,8.735525,32.658337
445.57126,0.014743207,0.0033283348,608.746,599.7712,152.20367,31.624592,122.915695,142.62776,2.0261106,8.974869,32.120934
453.37573,0.01487833,0.0033948396,619.52496,610.30743,154.8598,31.073162,125.33243,145.55418,2.1031878,9.217496,31.55822
461.2539,0.015011217,0.003466148,630.41864,620.9553,157.54907,30.491934,127.78589,148.63354,2.1851244,9.463352,30.965961
469.20294,0.015141799,0.0035408472,641.4274,631.7151,160.27534,29.886917,130.27429,151.82986,2.2711966,9.712365,30.350168
477.24713,0.015269964,0.0036270225,652.55237,642.58795,163.01013,29.224707,132.81139,155.3565,2.3668222,9.964451,29.677423
485.3742,0.015395582,0.0037128653,663.7887,653.5693,165.76846,28.555227,135.37718,158.90271,2.4645581,10.219414,28.99765
493.58054,0.015518427,0.0037965886,675.13684,664.6598,168.55577,27.886028,137.96945,162.42218,2.5632167,10.477061,28.318392
501.8818,0.015638348,0.0038797185,686.5981,675.86084,171.35684,27.210855,140.59137,165.95598,2.6638074,10.73726,27.633387
510.28036,0.015755236,0.0039631873,698.17236,687.17255,174.16876,26.525908,143.2403,169.52954,2.766988,10.99987,26.93883
518.7567,0.015869016,0.004043735,709.8573,698.5925,177.0109,25.844778,145.91425,173.05742,2.8704748,11.264736,26.248312
527.31226,0.015979622,0.0041211667,721.6547,710.1229,179.88403,25.168211,148.61395,176.5354,2.9740593,11.531768,25.562572
535.9485,0.016087016,0.004195318,733.5664,721.7655,182.78896,24.497116,151.3403,179.9592,3.0775442,11.800894,24.882507
544.6667,0.016191201,0.004266038,745.5935,733.5215,185.72552,23.832071,154.09383,183.32545,3.1807303,12.072055,24.2087
553.4675,0.016292198,0.004333241,757.73737,745.39215,188.6947,23.173603,156.87529,186.63174,3.2834585,12.345207,23.54167
562.3523,0.01639004,0.004396823,769.99927,757.37897,191.69658,22.522274,159.68526,189.87523,3.3855503,12.620319,22.881971
571.32166,0.01648477,0.004456715,782.38,769.48267,194.73163,21.878508,162.52411,193.05388,3.4868448,12.897356,22.230026
580.37714,0.016576445,0.0045128544,794.88135,781.70496,197.80016,21.242733,165.39273,196.16547,3.5871837,13.176306,21.58626
589.5194,0.016665123,0.0045652147,807.5038,794.0467,200.90227,20.615187,168.29146,199.209,3.6864283,13.45715,20.950901
598.74884,0.016750865,0.0046137786,820.2482,806.5084,204.0385,19.996267,171.22084,202.18283,3.7844436,13.739866,20.324348
608.06665,0.016833732,0.004658517,833.11554,819.0912,207.20879,19.386187,174.18117,205.0857,3.8810833,14.024445,19.706808
617.4734,0.016913788,0.0046994453,846.1069,831.79596,210.4136,18.785177,177.1729,207.91685,3.976233,14.310871,19.09851
626.96954,0.016991101,0.004736568,859.2224,844.6233,213.65318,18.193504,180.19644,210.67517,4.069765,14.599135,18.49971
636.55566,0.017065732,0.0047699003,872.4626,857.57336,216.92715,17.611343,183.25197,213.35988,4.1615596,14.889213,17.91059
646.2318,0.01713775,0.004799485,885.8279,870.64685,220.23634,17.038748,186.33974,215.97098,4.251518,15.181097,17.331188
655.9995,0.01720721,0.0048253573,899.31946,883.84467,223.5803,16.47603,189.46024,218.50737,4.3395376,15.47478,16.76182
665.85864,0.017274184,0.0048475573,912.9375,897.1672,226.95943,15.923185,192.61372,220.96915,4.425517,15.770251,16.202477
675.80963,0.01733872,0.0048661213,926.6825,910.6151,230.37428,15.380395,195.80017,223.35553,4.5093493,16.067488,15.653336
685.8524,0.017400883,0.0048811403,940.5539,924.1874,233.82385,14.847737,199.01987,225.66689,4.5909753,16.366468,15.114474
695.98804,0.017460736,0.004892661,954.55334,937.88605,237.30927,14.325255,202.27293,227.90306,4.6703057,16.667204,14.585927
706.2159,0.017518323,0.0049007596,968.67975,951.71014,240.83011,13.813033,205.55954,230.06415,4.747267,16.969645,14.067778
716.53723,0.01757371,0.0049055098,982.93494,965.66113,244.38681,13.311143,208.88008,232.15009,4.8217974,17.273815,13.560095
726.9517,0.017626949,0.0049069976,997.31793,979.7383,247.97903,12.819574,212.23422,234.16138,4.893837,17.579674,13.062865
737.4594,0.01767809,0.004905291,1011.8293,993.9421,251.6071,12.338356,215.62234,236.09818,4.963317,17.887209,12.576115
748.06116,0.01772719,0.0049004955,1026.4692,1008.2729,255.2707,11.867481,219.04475,237.96104,5.030208,18.196417,12.099835
758.7569,0.017774303,0.0048926943,1041.2385,1022.7312,258.97037,11.406986,222.50133,239.75024,5.0944614,18.507288,11.634056
769.5466,0.017819474,0.004881989,1056.1362,1037.3165,262.70572,10.956742,225.99211,241.46687,5.156046,18.819792,11.178649
780.4305,0.01786275,0.004868465,1071.1633,1052.0294,266.47714,10.516842,229.5172,243.11084,5.214921,19.133923,10.733704
791.4089,0.017904187,0.00485223,1086.3195,1066.8699,270.2843,10.087133,233.07692,244.68343,5.271072,19.449667,10.299065
802.4814,0.017943824,0.0048333816,1101.6047,1081.8378,274.12735,9.667695,236.67076,246.18483,5.3244762,19.767,9.874806
813.649,0.017981712,0.0048120054,1117.0194,1096.9335,278.00613,9.258367,240.2997,247.6161,5.3751035,20.08592,9.460769
824.9102,0.0180179,0.0047882353,1132.5625,1112.1561,281.92072,8.859099,243.96266,248.97835,5.4229755,20.406397,9.0569
836.2671,0.018052427,0.00476215,1148.2358,1127.5074,285.87085,8.4698105,247.6606,250.2722,5.4680715,20.728443,8.663114
847.7182,0.018085336,0.004733853,1164.0381,1142.986,289.85706,8.090468,251.39297,251.49834,5.510385,21.05202,8.279376
859.2641,0.018116679,0.0047034672,1179.9696,1158.5924,293.87897,7.7208943,255.16008,252.65843,5.549948,21.37713,7.905507
870.90485,0.018146496,0.0046710707,1196.0306,1174.3268,297.9366,7.361027,258.96185,253.75298,5.586744,21.703766,7.5414414
882.6403,0.018174822,0.0046367627,1212.2207,1190.1888,302.02985,7.010785,262.79855,254.78291,5.6207795,22.031895,7.1870975
894.47125,0.018201701,0.004600665,1228.5405,1206.179,306.1585,6.6700096,266.67014,255.74976,5.652103,22.361528,6.8423133
906.3965,0.018227171,0.0045628743,1244.9889,1222.2963,310.32278,6.3385925,270.57626,256.65454,5.680728,22.692625,6.506978
918.41656,0.018251276,0.0045234687,1261.5665,1238.5414,314.52228,6.0164547,274.5172,257.49796,5.7066565,23.025198,6.1810117
930.5312,0.01827405,0.0044825682,1278.2726,1254.9133,318.75693,5.7034154,278.49283,258.28168,5.729944,23.359219,5.8642306
942.74054,0.018295528,0.0044402494,1295.1079,1271.4132,323.02725,5.39943,282.50314,259.0062,5.7506022,23.694683,5.5565886
955.04517,0.018315753,0.0043966095,1312.0724,1288.0409,327.3327,5.104285,286.5485,259.67313,5.76867,24.031595,5.2578697
967.444,0.018334758,0.0043517374,1329.1654,1304.7954,331.6734,4.8178735,290.6285,260.2835,5.7841787,24.369925,4.967966
979.9377,0.018352574,0.0043057315,1346.3871,1321.6774,336.04898,4.540041,294.74344,260.83865,5.797181,24.709665,4.6867213
992.52545,0.018369248,0.004258678,1363.7362,1338.6854,340.45892,4.2706723,298.8927,261.33963,5.807713,25.050808,4.4140177
1005.2075,0.0183848,0.0042106602,1381.214,1355.8206,344.90417,4.009557,303.07678,261.78796,5.815823,25.393343,4.1496425
1017.98395,0.018399267,0.0041617416,1398.8197,1373.0825,349.38425,3.7566638,307.2954,262.18405,5.821527,25.737259,3.8935642
1030.855,0.018412681,0.004112033,1416.5535,1390.471,353.8985,3.5117276,311.54895,262.53006,5.824915,26.082548,3.6455157
1043.8192,0.018425077,0.0040615955,1434.4143,1407.9849,358.44705,3.2746847,315.8368,262.82648,5.8260107,26.429193,3.4054303
1056.8778,0.01843648,0.004010505,1452.4027,1425.6256,363.03012,3.0453365,320.15933,263.07483,5.8248687,26.777193,3.1731095
1070.0298,0.018446928,0.0039588334,1470.5184,1443.392,367.648,2.8235376,324.5163,263.27628,5.821538,27.126549,2.9484053
1083.2755,0.01845644,0.0039066495,1488.7605,1461.2832,372.29907,2.609186,328.90775,263.43164,5.816066,27.47722,2.7312143
1096.6151,0.018465046,0.0038540228,1507.1302,1479.3011,376.9847,2.4020824,333.33356,263.54242,5.8085146,27.829231,2.521336
1110.0472,0.018472778,0.0038010194,1525.6254,1497.4427,381.7036,2.2020602,337.79373,263.6099,5.7989306,28.182539,2.3186026
1123.572,0.018479664,0.0037477065,1544.2462,1515.7091,386.4566,2.009045,342.28793,263.63483,5.787381,28.537151,2.1229372
1137.19,0.018485725,0.0036941362,1562.9934,1534.1003,391.24323,1.8227836,346.8165,263.61884,5.7739105,28.893066,1.9340864
1150.901,0.018490992,0.003640367,1581.8663,1552.6161,396.063,1.6432219,351.37936,263.56247,5.758574,29.250278,1.7519939
1164.7047,0.01849549,0.0035864618,1600.865,1571.2562,400.91623,1.4701039,355.97623,263.4676,5.7414412,29.608784,1.5764025
1178.6006,0.01849924,0.0035324586,1619.9884,1590.0198,405.80258,1.303387,360.6073,263.3345,5.722542,29.968554,1.4072688
1192.5878,0.018502265,0.003478416,1639.2356,1608.906,410.7217,1.1429071,365.27197,263.1645,5.7019424,30.329569,1.2444268
1206.6671,0.018504594,0.0034243925,1658.6074,1627.9155,415.6738,0.9884162,369.97064,262.95932,5.6797233,30.691858,1.0876275
1220.8379,0.01850624,0.0033704198,1678.1031,1647.0477,420.65866,0.83988374,374.70312,262.71915,5.655912,31.05538,0.9368393
1235.096,0.018507231,0.003316275,1697.7224,1666.3024,425.68033,0.6988566,379.4713,262.43237,5.6301146,31.420141,0.7936076
1249.4408,0.01850759,0.0032621394,1717.4619,1685.6758,430.73605,0.5643489,384.27216,262.1062,5.6026,31.786083,0.65694547
1263.9115,0.01850734,0.003204902,1737.318,1705.1648,435.7885,0.45719683,389.08173,261.58298,5.5679336,32.153137,0.547688
1278.4786,0.018506506,0.0031422453,1757.2821,1724.7609,440.86243,0.39392957,393.87973,260.7361,5.521811,32.52115,0.4823632
1293.1539,0.018505163,0.0030792432,1777.3585,1744.4683,445.94257,0.34178725,398.70273,259.81277,5.472919,32.89031,0.42821008
1307.9158,0.018503482,0.0030170977,1797.5526,1764.2916,451.05292,0.29259947,403.55432,258.87442,5.423392,33.260983,0.37705716
1322.7638,0.018501587,0.0029558993,1817.863,1784.2296,456.19186,0.24575108,408.43585,257.92587,5.3734202,33.63335,0.3282884
1337.698,0.018499559,0.0028956726,1838.2905,1804.2831,461.36044,0.20103426,413.34753,256.96857,5.323087,34.007565,0.2816949
1352.7181,0.018497456,0.0028364286,1858.8339,1824.4502,466.5571,0.15827592,418.28897,256.00385,5.2724495,34.383698,0.23710251
1367.8231,0.018495308,0.0027781657,1879.4923,1844.7305,471.78247,0.117315665,423.25995,255.03287,5.2215414,34.761787,0.19434991
1383.0144,0.018493133,0.0027208866,1900.2668,1865.1249,477.03568,0.07808276,428.26132,254.05615,5.1704106,35.141884,0.1533654
1398.2903,0.018490933,0.00266459,1921.1558,1885.6317,482.317,0.040560097,433.29257,253.0738,5.1190925,35.52396,0.11413104
1413.6506,0.018488696,0.0026092534,1942.1583,1906.2502,487.62573,0.004682772,438.3531,252.08624,5.067583,35.907974,0.0765809
1429.095,0.018486418,0.0025510928,1963.2751,1926.981,492.97012,0.0,443.44293,250.8649,5.0084968,36.293922,0.070263304
1444.6222,0.018484088,0.0024936064,1984.5042,1947.8223,498.34286,0.0,448.56177,249.61372,4.948572,36.681747,0.06866569
1460.2328,0.018481772,0.0024373673,2005.8466,1968.7751,503.74368,0.0,453.70975,248.36877,4.888985,37.071598,0.067104384
1475.9263,0.018479515,0.0023823571,2027.301,1989.8375,509.17075,0.0,458.88657,247.12999,4.829755,37.46354,0.06557857
1491.7018,0.01847734,0.0023285467,2048.8667,2011.0092,514.6245,0.0,464.0924,245.89742,4.7708817,37.857605,0.0640875
1507.5591,0.018475255,0.002275911,2070.5427,2032.289,520.1046,0.0,469.32678,244.67102,4.7123704,38.253803,0.06263029
