con,Omega,ygross,ynet,inv,Eind,scc,carbontax,Dam,Emissions
77.175674,0.0028556,105.17594,104.8756,27.69993,36.845238,17.509594,550.0,0.3003404,39.445236
79.61988,0.0031179856,108.67582,108.33696,28.717087,37.496696,17.9697,547.25684,0.33884963,40.03758
82.21533,0.0033495047,112.3099,111.93372,29.718393,38.165142,18.480623,544.5275,0.37618256,40.648254
84.922874,0.0035570636,116.058975,115.64615,30.723269,38.842693,19.023136,541.8116,0.4128292,41.26934
87.73353,0.0037465154,119.91054,119.46128,31.727758,39.524227,19.597145,539.1093,0.44924667,41.8957
90.61103,0.003922639,123.85426,123.36843,32.7574,40.20549,20.196762,536.4205,0.48583558,42.52304
93.53281,0.0040892465,127.8939,127.37092,33.8381,40.887096,20.82559,533.7451,0.5229897,43.151955
96.57976,0.004249324,132.04759,131.48648,34.906723,41.574078,21.494974,531.08307,0.56111294,43.787437
99.72608,0.004405194,136.29936,135.69894,35.972862,42.260506,22.194784,528.4342,0.6004252,44.423542
102.9008,0.0045586596,140.63953,139.99838,37.09758,42.94274,22.907486,525.79865,0.6411277,45.05659
106.15117,0.0047111055,145.082,144.39851,38.247337,43.62466,23.647469,523.1762,0.6834966,45.69045
109.50551,0.0048635867,149.62666,148.89894,39.39344,44.3053,24.420702,520.5669,0.7277223,46.32412
112.900734,0.0050169104,154.26349,153.48956,40.588825,44.981354,25.211899,517.9706,0.77392614,46.95427
116.37316,0.005171695,159.00125,158.17892,41.805775,45.65462,26.030985,515.3871,0.82230586,47.582672
119.942055,0.0053284033,163.83835,162.96536,43.023304,46.324326,26.88122,512.81665,0.87299687,48.20854
123.57562,0.0054873917,168.76732,167.84123,44.265617,46.9876,27.754799,510.25897,0.9260924,48.82897
127.27162,0.0056489278,173.78767,172.80595,45.534348,47.64417,28.650179,507.71402,0.981714,49.443676
131.0458,0.0058132056,178.89893,177.85896,46.813164,48.293262,29.570383,505.18176,1.0399762,50.05185
134.89339,0.0059803706,184.09862,182.99763,48.104248,48.93413,30.513748,502.66214,1.100978,50.652733
138.81223,0.0061505223,189.38571,188.22089,49.40867,49.565933,31.47947,500.15515,1.164821,51.24546
142.80156,0.0063237306,194.76012,193.52852,50.72697,50.188526,32.467392,497.66055,1.2316107,51.829865
146.85976,0.006500039,200.22191,198.92044,52.06068,50.80167,33.477055,495.1785,1.30145,52.40569
150.98161,0.006679468,205.77182,204.39737,53.41577,51.405235,34.507084,492.70874,1.3744464,52.972782
155.16914,0.0068620224,211.41118,209.96048,54.791348,51.99936,35.5592,490.2514,1.4507083,53.531265
159.41882,0.0070476998,217.1383,215.60799,56.189156,52.583237,36.63213,487.80627,1.5303255,54.080307
163.72748,0.007236488,222.95274,221.33936,57.611866,53.15682,37.722687,485.37332,1.613395,54.61985
168.10428,0.007428365,228.85649,227.15646,59.052177,53.7201,38.835144,482.95248,1.7000294,55.149864
172.55168,0.007623303,234.85101,233.06067,60.509003,54.273514,39.97051,480.5438,1.7903407,55.670773
177.06184,0.00782127,240.93727,239.05284,61.990997,54.816776,41.127388,478.147,1.8844355,56.182262
181.62027,0.008022234,247.11386,245.13144,63.511158,55.34958,42.302685,475.76218,1.982405,56.68402
186.24644,0.008226154,253.38144,251.29709,65.05064,55.871803,43.50028,473.38937,2.0843549,57.175903
190.9428,0.008432995,259.74176,257.55136,66.60856,56.383755,44.721264,471.02832,2.1904008,57.6582
195.71082,0.008642713,266.1961,263.89545,68.18463,56.88545,45.966263,468.67902,2.3006566,58.130913
200.55174,0.008855265,272.74554,270.33032,69.778564,57.376926,47.235897,466.3415,2.415234,58.59408
205.46689,0.009070607,279.39117,276.85693,71.39004,57.858376,48.530743,464.01566,2.5342476,59.047848
210.45695,0.009288698,286.1338,283.47598,73.01903,58.329662,49.851192,461.7013,2.6578104,59.492092
215.52277,0.009509489,292.97415,290.1881,74.66534,58.79079,51.19776,459.39856,2.7860346,59.926785
220.65591,0.009732936,299.91302,296.99396,76.33805,59.24187,52.56735,457.10733,2.9190342,60.35204
225.86905,0.009958987,306.95596,303.899,78.029945,59.683712,53.96517,454.8275,3.0569704,60.768635
231.16862,0.010187603,314.10486,310.90488,79.736275,60.116497,55.391487,452.55902,3.1999755,61.17675
236.5348,0.010418735,321.35013,318.00204,81.467255,60.538216,56.83355,450.30185,3.348062,61.57437
241.93419,0.010652336,328.67148,325.17032,83.23615,60.945114,58.284122,448.05597,3.501119,61.95771
247.38657,0.010888363,336.08047,332.4211,85.034546,61.33932,59.75143,445.82132,3.659366,62.32889
252.90317,0.01112676,343.58374,339.76077,86.8576,61.72211,61.240067,443.59775,3.822974,62.68918
258.48962,0.011367461,351.18497,347.19284,88.703255,62.093872,62.75254,441.38525,3.9920812,63.03895
264.14996,0.011610404,358.8866,354.71976,90.5698,62.455162,64.29044,439.1839,4.166818,63.37875
269.88583,0.011855533,366.68988,362.34253,92.45673,62.806015,65.85468,436.99344,4.3473043,63.7086
275.6989,0.012102793,374.59628,370.06265,94.36372,63.14659,67.44589,434.8139,4.533661,64.02866
281.5902,0.012352121,382.60657,377.88055,96.290375,63.477043,69.06466,432.64526,4.7260027,64.33905
287.52448,0.012603468,390.7215,385.797,98.272545,63.79718,70.6981,430.48746,4.924445,64.63959
293.53616,0.012856781,398.94144,393.81235,100.27617,64.10722,72.36316,428.34033,5.129102,64.93047
299.6186,0.013111996,407.26288,401.92285,102.30426,64.406425,74.05306,426.20395,5.340029,65.21097
305.77304,0.013369076,415.68832,410.13095,104.3579,64.69527,75.77095,424.07834,5.5573688,65.48151
311.9982,0.013627955,424.21933,418.43814,106.43991,64.97368,77.520065,421.96323,5.7812424,65.74205
318.3006,0.013888586,432.85696,426.84518,108.544586,65.24205,79.29726,419.85864,6.011771,65.99295
324.6819,0.014150912,441.6024,435.3533,110.67144,65.50023,81.1033,417.76456,6.2490764,66.23405
331.14297,0.014414882,450.4563,443.963,112.82003,65.74853,82.93873,415.68094,6.493274,66.46566
337.6843,0.014680438,459.41925,452.6748,114.99049,65.986855,84.803825,413.60776,6.7444763,66.68768
344.30814,0.014947529,468.49255,461.48972,117.181595,66.21533,86.69815,411.5449,7.0028057,66.90023
351.0036,0.015216104,477.6701,470.4019,119.398285,66.43324,88.61625,409.49225,7.268278,67.10257
357.75537,0.015486109,486.9451,479.4042,121.64882,66.63937,90.553734,407.4499,7.540885,67.29348
364.57782,0.01575749,496.3244,488.50357,123.925766,66.834854,92.51573,405.41776,7.820827,67.47409
371.47574,0.016030194,505.8112,497.703,126.22726,67.02026,94.504906,403.3957,8.108252,67.64495
378.45105,0.016304156,515.4077,507.00443,128.55334,67.195724,96.52275,401.38373,8.403287,67.80621
385.50626,0.016579326,525.1153,516.40924,130.90294,67.36132,98.570274,399.38184,8.706058,67.95793
392.64334,0.016855642,534.93536,525.9187,133.27538,67.51749,100.6485,397.38986,9.01668,68.10054
399.86237,0.017133053,544.86835,535.5331,135.6707,67.6641,102.75748,395.4079,9.3352585,68.23389
407.17285,0.01741151,554.9149,545.253,138.08014,67.801285,104.900444,393.43576,9.661906,68.35812
414.57233,0.017690957,565.06866,555.0721,140.49977,67.92825,107.07493,391.47354,9.996606,68.47243
422.02014,0.017971344,575.3189,564.9796,142.95953,68.04378,109.26895,389.52103,10.339254,68.575584
429.5302,0.01825262,585.67316,574.98303,145.45285,68.148865,111.48951,387.5783,10.690069,68.668564
437.11133,0.018534727,596.1359,585.0867,147.97539,68.24408,113.73642,385.64514,11.049216,68.75197
444.76917,0.018817605,606.7099,595.293,150.52386,68.32979,116.01232,383.7218,11.416827,68.826126
452.5075,0.019101206,617.3976,605.60455,153.09708,68.406204,118.31891,381.8079,11.793039,68.89126
460.32773,0.019385476,628.19965,616.0217,155.694,68.47376,120.656815,379.90366,12.177949,68.947784
468.22128,0.019670358,639.1173,626.54565,158.32436,68.53215,123.022194,378.00888,12.571668,68.9954
476.18848,0.01995581,650.1509,637.1766,160.9881,68.58181,125.41581,376.1236,12.974288,69.034515
484.22928,0.020241773,661.2999,647.914,163.68471,68.62259,127.839905,374.24768,13.385882,69.06501
492.34805,0.020528203,672.5631,658.7566,166.40855,68.65441,130.29382,372.3811,13.806511,69.08678
500.54822,0.020815056,683.9423,669.70605,169.1578,68.67753,132.77936,370.52383,14.236299,69.10006
508.83148,0.021102287,695.4387,680.76337,171.93193,68.69196,135.2971,368.67575,14.675347,69.10488
517.19824,0.021389844,707.05286,691.92914,174.7309,68.69806,137.8475,366.83698,15.123751,69.10159
525.64996,0.021677686,718.7854,703.2038,177.5538,68.695694,140.4313,365.00735,15.581604,69.09005
534.1871,0.021965768,730.637,714.588,180.40096,68.68523,143.0486,363.18686,16.049004,69.07062
542.8096,0.022254044,742.6081,726.0821,183.27246,68.66649,145.69946,361.37546,16.526033,69.04312
551.5179,0.022542471,754.6985,737.6857,186.16786,68.63966,148.38441,359.57306,17.01277,69.00773
560.3127,0.02283101,766.9091,749.3998,189.08716,68.60485,151.10364,357.77966,17.50931,68.96455
569.1934,0.023119614,779.2398,761.224,192.03062,68.56213,153.85709,355.99527,18.015722,68.91366
578.162,0.023408243,791.6918,773.1596,194.99765,68.51167,156.64557,354.21964,18.532116,68.855194
587.21735,0.023696851,804.2646,785.20605,197.98872,68.453354,159.46863,352.45297,19.058538,68.78906
596.34503,0.023985412,816.95886,797.3637,201.01874,68.387535,162.3152,350.6951,19.595095,68.715614
605.5179,0.024273872,829.7599,809.6184,204.10051,68.312836,165.17325,348.946,20.141485,68.63346
614.7386,0.024562193,842.66345,821.9658,207.2272,68.22916,168.0477,347.20557,20.697662,68.54249
624.02606,0.024850339,855.6786,834.4146,210.3886,68.1374,170.9475,345.47385,21.263905,68.4436
633.3888,0.025138263,868.8099,846.9696,213.58076,68.037994,173.8767,343.75082,21.840372,68.337234
642.83234,0.02542592,882.06024,859.6331,216.80078,67.931145,176.83751,342.0363,22.427193,68.22358
652.3581,0.025713278,895.43097,872.4065,220.04842,67.81731,179.831,340.3304,23.024464,68.103096
661.9678,0.026000278,908.9229,885.2908,223.32297,67.69636,182.85768,338.63303,23.632248,67.97565
671.6628,0.026286902,922.5369,898.2863,226.62352,67.56844,185.91858,336.944,24.250637,67.84138
681.4423,0.026573097,936.27203,911.3924,229.95006,67.433846,189.01335,335.2635,24.87965,67.70058
691.3037,0.02685883,950.1303,924.61096,233.30725,67.29252,192.14203,333.5913,25.519388,67.553185
701.2411,0.027144073,964.10846,937.9386,236.69754,67.144455,195.30283,331.92758,26.169828,67.3992
711.25653,0.027428793,978.20575,951.37476,240.1182,66.989716,198.4946,330.272,26.831003,67.23867
721.35364,0.027712947,992.4237,964.9207,243.56705,66.82849,201.71904,328.6248,27.502987,67.071785
731.5344,0.027996503,1006.76355,978.57776,247.04332,66.660805,204.97733,326.98578,28.185858,66.89857
741.8005,0.028279433,1021.22614,992.3465,250.54594,66.48697,208.27019,325.35492,28.879696,66.71932
752.1522,0.0285617,1035.8119,1006.22723,254.075,66.30708,211.59766,323.73218,29.584547,66.534164
762.5899,0.02884328,1050.5205,1020.22003,257.6301,66.12112,214.96019,322.11758,30.300455,66.34302
773.1123,0.02912414,1065.3528,1034.3252,261.21292,65.92932,218.3611,320.51096,31.027483,66.14618
783.71576,0.029404253,1080.3063,1048.5406,264.8248,65.73153,221.80183,318.91235,31.765596,65.94346
794.39624,0.029683579,1095.3785,1062.8638,268.46753,65.52793,225.27356,317.32175,32.514755,65.73505
805.1583,0.0299621,1110.5721,1077.297,272.13864,65.31843,228.77872,315.73904,33.275074,65.52083
816.00354,0.030239787,1125.8871,1091.8405,275.83698,65.10348,232.31833,314.16434,34.046585,65.30127
826.9342,0.030516602,1141.3258,1106.4966,279.5623,64.88308,235.89302,312.59738,34.82939,65.076385
837.9497,0.030792523,1156.8876,1121.2642,283.3144,64.657425,239.50314,311.0383,35.623486,64.84633
849.0523,0.031067535,1172.5728,1136.1438,287.0916,64.42662,243.14899,309.487,36.428947,64.61124
860.24005,0.031341594,1188.3818,1151.136,290.89594,64.19069,246.83058,307.94342,37.24578,64.37109
871.5142,0.03161468,1204.3142,1166.2402,294.726,63.949688,250.54646,306.4075,38.07401,64.126
882.86523,0.03188677,1220.3676,1181.4541,298.58878,63.703728,254.2899,304.87927,38.91358,63.87603
894.282,0.03215783,1236.5334,1196.7692,302.48718,63.45245,258.05914,303.35867,39.764236,63.62083
905.776,0.03242785,1252.8186,1212.1924,306.41635,63.19625,261.8603,301.84564,40.626213,63.36081
917.3509,0.032696802,1269.224,1227.7244,310.37354,62.93538,265.6945,300.34024,41.499565,63.096195
929.0044,0.032964654,1285.752,1243.3674,314.3631,62.67007,269.5595,298.8423,42.384365,62.82722
940.7284,0.033231393,1302.396,1259.1156,318.3872,62.39999,273.45233,297.35178,43.280434,62.553577
952.5285,0.03349698,1319.1583,1274.9705,322.442,62.125374,277.37625,295.8687,44.18782,62.27547
964.4093,0.033761416,1336.0409,1290.9343,326.52505,61.846535,281.33368,294.393,45.106636,61.993217
976.37354,0.034024674,1353.0449,1307.008,330.6345,61.563637,285.32602,292.92477,46.036915,61.70698
988.4215,0.034286715,1370.1714,1323.1927,334.77118,61.276726,289.35333,291.46375,46.978676,61.416813
1000.5556,0.034547526,1387.4205,1339.4885,338.93298,60.9859,293.41666,290.01004,47.931946,61.12281
1012.7743,0.0348071,1404.7916,1355.8949,343.12067,60.691357,297.5155,288.56363,48.896725,60.82515
1025.0782,0.03506541,1422.2847,1372.4117,347.33347,60.39321,301.6502,287.12442,49.872997,60.523952
1037.4672,0.03532244,1439.8999,1389.0392,351.57202,60.091434,305.821,285.69235,50.86078,60.219204
1049.9409,0.03557816,1457.637,1405.777,355.83606,59.78612,310.02737,284.26752,51.860046,59.91099
1062.5004,0.035832565,1475.4961,1422.6254,360.12494,59.47751,314.27005,282.8497,52.87081,59.599537
1075.1576,0.036085635,1493.4773,1439.5844,364.4268,59.165585,318.5576,281.43893,53.893074,59.28484
1087.9432,0.036337357,1511.5837,1456.6566,368.71347,58.850574,322.90982,280.03522,54.926956,58.967113
1100.7617,0.03658772,1529.8262,1473.8534,373.09167,58.5332,327.26352,278.6386,55.97285,58.64709
1113.6155,0.036836702,1548.168,1491.1385,377.52313,58.21182,331.6278,277.2489,57.0294,58.32312
1126.5287,0.037084296,1566.6178,1508.521,381.99228,57.887154,336.01566,275.86612,58.096916,57.995922
1139.5156,0.037330475,1585.1836,1526.0079,386.4923,57.559444,340.4338,274.4902,59.175655,57.665745
1152.5791,0.03757523,1603.8657,1543.6001,391.02106,57.228893,344.8839,273.12112,60.265625,57.332775
1165.7234,0.03781855,1622.666,1561.2991,395.57578,56.895718,349.36792,271.7589,61.366882,56.99724
1178.9495,0.03806043,1641.5859,1579.1064,400.15698,56.559982,353.88654,270.40353,62.47947,56.65919
1192.2561,0.03830083,1660.6243,1597.0211,404.76505,56.221848,358.43933,269.05487,63.603294,56.318806
1205.6456,0.038539764,1679.7812,1615.0427,409.39716,55.881317,363.02686,267.71292,64.73837,55.97607
1219.0961,0.038777195,1699.0571,1633.1726,414.0765,55.538525,367.6376,266.3777,65.88467,55.631123
1232.6154,0.03901313,1718.4462,1651.4043,418.78882,55.193455,372.27643,265.04916,67.04196,55.283947
1246.2122,0.03924756,1737.9515,1669.7412,423.52896,54.846115,376.94748,263.7271,68.21036,54.934547
1259.8889,0.039480463,1757.5728,1688.1831,428.29425,54.496918,381.65268,262.41183,69.389786,54.583344
1273.6469,0.03971184,1777.3121,1706.7318,433.085,54.145695,386.39197,261.103,70.58033,54.230152
1287.4854,0.039941676,1797.1671,1725.3854,437.89996,53.792587,391.16577,259.80072,71.78187,53.87513
1301.4421,0.040169958,1817.1394,1744.1449,442.70282,53.437866,395.9912,258.50494,72.99441,53.518528
1315.5479,0.040396683,1837.2255,1763.0078,447.45993,53.081474,400.88278,257.21564,74.21782,53.1603
1329.7312,0.040621836,1857.4244,1781.9725,452.24127,52.723297,405.80725,255.93274,75.451996,52.800335
1343.9968,0.04084541,1877.7383,1801.0413,457.04446,52.3636,410.76532,254.65625,76.69699,52.438885
1358.3777,0.041067403,1898.1649,1820.2122,461.83444,52.00262,415.7413,253.38615,77.952705,52.07619
1372.7555,0.041287806,1918.6887,1839.4703,466.71484,51.639713,420.708,252.12239,79.218445,51.711613
1387.1638,0.041506607,1939.3052,1858.8113,471.64743,51.275017,425.68317,250.8649,80.49399,51.34528
1401.629,0.041723814,1960.0223,1878.243,476.6139,50.908916,430.68057,249.61372,81.77961,50.97758
1416.1667,0.041939404,1980.848,1897.7725,481.6058,50.541546,435.70734,248.36877,83.07559,50.608646
1430.7778,0.04215337,2001.7834,1917.4015,486.62375,50.173203,440.76456,247.12999,84.38192,50.23878
1445.468,0.042365707,2022.8297,1937.1311,491.66315,49.80393,445.85504,245.89742,85.698616,49.86802
1460.2362,0.04257641,2043.987,1956.9613,496.72513,49.433823,450.9781,244.67102,87.025635,49.496452
1475.0833,0.042785484,2065.255,1976.8921,501.80884,49.063015,456.1343,243.45068,88.36293,49.12422
1490.0087,0.042992912,2086.632,1996.9219,506.91312,48.691505,461.32336,242.2365,89.71039,48.751316
1505.0132,0.043198686,2108.1204,2017.0524,512.0392,48.319324,466.5457,241.02832,91.06804,48.377777
1520.0957,0.043402802,2129.717,2037.2814,517.18567,47.946655,471.80093,239.82622,92.43569,48.003784
1535.2567,0.043605268,2151.4236,2057.6104,522.3534,47.57353,477.0891,238.63002,93.81341,47.629353
1550.4403,0.043806087,2173.2388,2078.0376,527.5973,47.200016,482.36722,237.43987,95.20108,47.254574
1565.6709,0.04400524,2195.1477,2098.5496,532.8788,46.825863,487.66074,236.25562,96.598,46.879177
1580.9653,0.044202734,2217.157,2119.1526,538.1874,46.45132,492.98007,235.07727,98.0044,46.50342
1596.3314,0.04439857,2239.2717,2139.8513,543.51996,46.07655,498.32898,233.90482,99.42046,46.12747
1611.7692,0.044592727,2261.49,2160.644,548.8751,45.701622,503.7072,232.73819,100.846016,45.75139
1627.2828,0.044785228,2283.814,2181.5327,554.24994,45.326633,509.1171,231.5774,102.281136,45.375263
1642.87,0.04497606,2306.2417,2202.516,559.646,44.951725,514.5575,230.42236,103.725655,44.999252
1658.533,0.045165226,2328.774,2223.5942,565.0614,44.576813,520.02966,229.27316,105.179596,44.623257
1674.2721,0.045352723,2351.4114,2244.7688,570.4965,44.202057,525.53326,228.12962,106.642914,44.247448
1690.0857,0.045538552,2374.1519,2266.0366,575.9509,43.82758,531.06824,226.99182,108.11545,43.871933
1705.9718,0.045722704,2396.994,2287.397,581.42505,43.453266,536.63354,225.85965,109.59705,43.496616
1721.9215,0.045905184,2419.9402,2308.8525,586.9309,43.07931,542.21,224.73318,111.0878,43.121674
1737.9354,0.046086006,2442.9895,2330.4019,592.46643,42.70584,547.79785,223.6123,112.58763,42.74724
1754.0286,0.046265163,2466.143,2352.0464,598.0178,42.332787,553.41895,222.49709,114.09651,42.373245
1770.1558,0.046442665,2489.4006,2373.7861,603.63043,41.960365,559.04486,221.38739,115.6144,41.999897
1786.2837,0.04661849,2512.747,2395.6067,609.32294,41.588215,564.65814,220.28323,117.14047,41.626854
1802.5266,0.046792656,2536.179,2417.5046,614.978,41.216465,570.3095,219.18459,118.67456,41.254227
1818.869,0.046965156,2559.7244,2439.5066,620.6376,40.845615,576.0036,218.09134,120.21786,40.882515
1835.2947,0.04713601,2583.3735,2461.6035,626.30884,40.47555,581.73303,217.00356,121.76992,40.511616
1851.7689,0.0473052,2607.1223,2483.792,632.0231,40.106308,587.48035,215.92122,123.33045,40.14155
1868.2921,0.04747275,2630.9744,2506.0747,637.7828,39.737892,593.246,214.84435,124.89959,39.77233
1884.9087,0.047638632,2654.937,2528.4592,643.55054,39.37063,599.05225,213.7728,126.47756,39.404285
1901.5891,0.047802873,2679.002,2550.938,649.34894,39.004364,604.8817,212.70659,128.064,39.037254
1918.3054,0.04796548,2703.1577,2573.4998,655.19415,38.63892,610.7206,211.6457,129.65825,38.671062
1935.0762,0.048126444,2727.4,2596.14,661.0639,38.274426,616.5802,210.59012,131.26007,38.305843
1951.9056,0.04828578,2751.732,2618.8625,666.957,37.910854,622.4629,209.53983,132.86952,37.941555
1968.8014,0.048443493,2776.155,2641.6682,672.867,37.548347,628.3723,208.49475,134.48663,37.57835
1985.7639,0.04859957,2800.6719,2664.5605,678.79645,37.187004,634.30865,207.45488,136.11145,37.216324
2002.7264,0.048754033,2825.2761,2687.5325,684.80615,36.826794,640.2145,206.42018,137.7436,36.855446
2019.7567,0.04890687,2849.9736,2710.5906,690.8339,36.467762,646.1466,205.39067,139.3833,36.49576
2036.851,0.049058106,2874.7612,2733.731,696.88,36.11001,652.10504,204.36627,141.03033,36.137375
2054.0078,0.049207732,2899.636,2756.9512,702.94354,35.753517,658.08734,203.347,142.68451,35.780266
2071.2285,0.04935574,2924.6003,2780.2546,709.02606,35.398396,664.0962,202.33278,144.34581,35.424534
2088.5154,0.04950216,2949.6533,2803.6394,715.1242,35.044598,670.13043,201.3236,146.01422,35.070137
