con,Omega,Theta,ygross,ynet,inv,Eind,scc,carbontax,Abatement,Dam,Emissions
77.14089,0.0028556,0.00017247506,105.17594,104.8756,27.716629,33.26724,22.187538,13.181844,0.018140227,0.3003404,35.867237
79.67437,0.0031336462,0.00020877428,108.70886,108.3682,28.671204,33.557495,22.727406,14.936611,0.022695614,0.34065512,36.098377
82.30325,0.0033833182,0.00024622385,112.35256,111.972435,29.641617,33.8614,23.320053,16.65634,0.027663881,0.38012445,36.344513
85.022316,0.0036104931,0.0002842692,116.1036,115.68442,30.629221,34.176704,23.960995,18.332302,0.03300468,0.41919127,36.603355
87.82835,0.0038202282,0.0003226243,119.958954,119.50068,31.633778,34.500324,24.647255,19.965698,0.038701672,0.45827055,36.8718
90.71706,0.004016719,0.00036092673,123.91604,123.41831,32.65671,34.830353,25.375349,21.553265,0.044724606,0.4977359,37.147903
93.684875,0.0042033643,0.00039891436,127.97254,127.43462,33.698902,35.164963,26.142384,23.09446,0.05105008,0.53791517,37.429817
96.730064,0.0043828734,0.0004364955,132.12665,131.54756,34.760082,35.501915,26.946667,24.593649,0.05767269,0.5790944,37.71527
99.854256,0.004557388,0.00047384063,136.37668,135.75517,35.836586,35.83797,27.788786,26.06279,0.064620815,0.6215215,38.001
103.052284,0.0047285836,0.00051076245,140.72122,140.0558,36.93198,36.172287,28.665407,27.500248,0.07187512,0.665412,38.286137
106.3234,0.0048977616,0.0005472842,145.1595,144.44855,38.046074,36.50346,29.575497,28.910797,0.0794435,0.7109566,38.569252
109.667496,0.0050659305,0.00058352284,149.6905,148.93219,39.17778,36.829414,30.51869,30.30163,0.08734783,0.75832164,38.84823
113.0811,0.0052338694,0.00061940216,154.31349,153.50583,40.32964,37.14968,31.492493,31.672876,0.095582105,0.80765665,39.122597
116.56356,0.005402169,0.0006549689,159.02798,158.16888,41.50173,37.462948,32.49626,33.028446,0.10415838,0.85909605,39.391
120.11404,0.005571282,0.0006902941,163.83342,162.92065,42.694164,37.76831,33.52931,34.372364,0.11309324,0.9127622,39.652523
123.732254,0.0057415473,0.0007254296,168.72978,167.76102,43.90705,38.064724,34.5913,35.70794,0.12240159,0.96877,39.906094
127.41773,0.0059132166,0.00076044176,173.71686,172.68964,45.140594,38.351578,35.681786,37.038425,0.13210155,1.0272254,40.15108
131.17021,0.0060864715,0.0007953812,178.79471,177.70647,46.39491,38.627956,36.800507,38.366623,0.14220996,1.0882288,40.386547
134.98946,0.0062614405,0.00083030434,183.96329,182.8114,47.670174,38.893433,37.947193,39.69506,0.15274552,1.1518751,40.612034
138.87538,0.006438209,0.0008652631,189.22287,188.00462,48.96658,39.147236,39.1217,41.02627,0.16372758,1.2182565,40.826763
142.82788,0.006616827,0.00090030016,194.57365,193.2862,50.284283,39.389034,40.323906,42.36216,0.1751747,1.2874603,41.030376
146.84695,0.006797317,0.0009354581,200.0158,198.65622,51.62345,39.618374,41.553722,43.704643,0.1871064,1.3595707,41.222393
150.9327,0.0069796797,0.000970768,205.54985,204.11516,52.984318,39.83487,42.811157,45.055244,0.1995412,1.434672,41.40242
155.08513,0.0071639013,0.0010062599,211.17606,209.66321,54.367123,40.038246,44.09619,46.415356,0.21249801,1.5128444,41.57015
159.3043,0.00734995,0.00104196,216.89479,215.30061,55.771984,40.228092,45.40886,47.786304,0.22599569,1.5941658,41.725163
163.59155,0.007537783,0.0010779222,222.70663,221.02792,57.198097,40.404263,46.74984,49.16994,0.24006043,1.6787144,41.867294
167.94809,0.0077273506,0.0011142503,228.61163,226.84508,58.644215,40.565872,48.119698,50.56976,0.25473055,1.7665622,41.995636
172.37119,0.007918593,0.001150993,234.60962,232.75185,60.11277,40.712738,49.51668,51.98733,0.27003402,1.8577778,42.109997
176.86215,0.00811144,0.0011884138,240.70126,238.74884,61.602943,40.843365,50.941315,53.43049,0.2860527,1.9524337,42.208855
181.4199,0.0083058225,0.0012265169,246.88615,244.83556,63.115337,40.95771,52.3929,54.899467,0.30281004,2.0505927,42.292152
186.04405,0.008501661,0.00126519,253.1647,251.01237,64.65073,41.056133,53.871277,56.391537,0.32030144,2.1523206,42.36023
190.73491,0.008698861,0.0013044325,259.5376,257.27988,66.20938,41.1387,55.37666,57.906918,0.3385493,2.2576814,42.413143
195.49303,0.008897336,0.0013446311,266.00565,263.6389,67.79137,41.203625,56.908947,59.456516,0.35767946,2.366742,42.449093
200.31685,0.009096996,0.0013856636,272.56775,270.08823,69.39712,41.25121,58.467216,61.037224,0.37768722,2.4795477,42.468353
205.20714,0.009297738,0.0014274677,279.2247,276.62854,71.02652,41.281845,60.051907,62.64753,0.39858425,2.596158,42.471317
210.16432,0.009499458,0.0014700074,285.97726,283.26065,72.67996,41.29567,61.66334,64.28682,0.42038873,2.716629,42.458096
215.18893,0.00970205,0.0015132326,292.82645,289.98544,74.35768,41.29296,63.302006,65.95406,0.44311452,2.8410168,42.42896
220.28152,0.009905415,0.0015571178,299.77283,296.80347,76.05977,41.27399,64.96812,67.648796,0.46678162,2.9693742,42.38416
225.4424,0.0101094395,0.0016016271,306.8172,303.71545,77.78661,41.238857,66.66202,69.37051,0.49140674,3.1017497,42.32378
230.67209,0.010314019,0.0016467157,313.96048,310.72226,79.53849,41.187828,68.38405,71.118324,0.5170036,3.2381945,42.248085
235.97118,0.010519047,0.0016923354,321.20334,317.82462,81.31557,41.12119,70.13459,72.891335,0.54358375,3.378753,42.157337
241.34003,0.01072442,0.001738457,328.54657,325.02313,83.11804,41.03919,71.91394,74.689095,0.5711641,3.5234714,42.051777
246.77937,0.0109300325,0.0017853343,335.9909,332.31854,84.94584,40.94071,73.72221,76.51873,0.5998561,3.6723914,41.930275
252.28854,0.011135778,0.0018330811,343.53577,339.71027,86.798965,40.825233,75.55878,78.383514,0.629729,3.825538,41.7923
257.86688,0.011341558,0.0018815404,351.181,347.19803,88.6779,40.693275,77.42319,80.27979,0.6607612,3.9829395,41.638348
263.52145,0.011547262,0.0019312856,358.9273,354.78268,90.57604,40.542587,79.319885,82.22283,0.6931912,4.1446276,41.466175
269.24683,0.011752779,0.001981868,366.77472,362.46408,92.4989,40.37507,81.24544,84.201225,0.7268991,4.3106217,41.277657
275.04263,0.011958001,0.0020331217,374.72418,370.24326,94.447845,40.191566,83.19959,86.21106,0.76185995,4.4809523,41.073635
280.90918,0.012162811,0.002084973,382.77646,378.12082,96.42325,39.99262,85.18263,88.25069,0.79807854,4.6556373,40.85463
286.8471,0.0123670995,0.0021373462,390.93216,386.09747,98.42513,39.778458,87.195015,90.31876,0.8355574,4.8346972,40.620865
292.85693,0.012570758,0.002190172,399.19244,394.1743,100.45404,39.549706,89.2371,92.41372,0.8743001,5.0181518,40.372963
298.9378,0.012773683,0.002244106,407.5578,402.3518,102.51108,39.30353,91.30921,94.5531,0.9146029,5.206014,40.10807
305.08902,0.012975774,0.0022996995,416.02896,410.63068,104.59734,39.03779,93.411545,96.75146,0.9567416,5.398298,39.82403
311.31357,0.013176915,0.0023555907,424.6067,419.0117,106.711105,38.758286,95.544655,98.97412,1.0001996,5.5950065,39.52665
317.6119,0.013376994,0.0024117187,433.2917,427.49554,108.852646,38.465565,97.70888,101.219765,1.0449777,5.79614,39.21646
323.98465,0.013575904,0.0024679918,442.08475,436.0831,111.02218,38.159966,99.90455,103.48677,1.0910616,6.001701,38.893787
330.43207,0.013773546,0.0025243398,450.9864,444.7747,113.21985,37.842045,102.13192,105.77356,1.1384429,6.2116814,38.55918
336.95068,0.01396982,0.0025820655,459.99707,453.571,115.44918,37.506275,104.389824,108.114334,1.1877426,6.426076,38.207104
343.54126,0.014164636,0.0026410942,469.11798,462.47305,117.71037,37.15315,106.67871,110.50757,1.2389847,6.6448846,37.838043
350.2081,0.014357893,0.0026999784,478.3496,471.4815,120.00042,36.789017,109.00041,112.91635,1.2915336,6.8680916,37.45834
356.96783,0.014549488,0.002759918,487.69238,480.59668,122.30246,36.408745,111.36209,115.372284,1.345991,7.0956745,37.062843
363.80908,0.014739323,0.0028211102,497.14502,489.81744,124.62654,36.011562,113.76,117.88083,1.402501,7.3275814,36.65079
370.72437,0.014927301,0.0028828615,506.70578,499.142,126.97868,35.600494,116.18775,120.42446,1.4607626,7.5637493,36.22519
377.71368,0.0151133165,0.0029455828,516.37616,508.572,129.36026,35.173927,118.64355,123.01446,1.5210288,7.804156,35.784416
384.78485,0.015297267,0.0030114828,526.1588,518.11,131.76483,34.722862,121.13357,125.708115,1.5845181,8.048792,35.31947
391.92645,0.015479051,0.003082332,536.05255,527.755,134.20184,34.2402,123.65486,128.55112,1.6522919,8.297585,34.823242
399.13513,0.01565855,0.0031543307,546.05896,537.5084,136.67784,33.742043,126.20998,131.44647,1.7224504,8.550491,34.31183
406.42386,0.015835604,0.0032264146,556.17786,547.3704,139.18054,33.232933,128.79974,134.3675,1.7944602,8.807412,33.78977
413.80292,0.016010072,0.0032994987,566.4097,557.3415,141.69966,32.709244,131.43163,137.33823,1.8688681,9.06826,33.253418
421.2629,0.016181834,0.0033736303,576.75555,567.4226,144.2454,32.170956,134.0971,140.36047,1.9457601,9.332962,32.702755
428.787,0.016350785,0.0034495445,587.2132,577.6118,146.83234,31.61512,136.78822,143.45366,2.025618,9.6013975,32.13483
436.3829,0.01651681,0.0035315542,597.78455,587.9111,149.45189,31.024439,139.49442,146.72868,2.1111088,9.873494,31.532328
444.07578,0.016679803,0.0036160029,608.4709,598.3217,152.08241,30.414267,142.23488,150.0925,2.2002323,10.149174,30.910603
451.8558,0.016839609,0.0037006144,619.2722,608.84393,154.73503,29.793947,145.00871,153.48772,2.2916877,10.428302,30.279003
459.71707,0.016996073,0.003784577,630.18805,619.4773,157.41576,29.167063,147.8169,156.89397,2.3849952,10.710722,29.641092
467.66058,0.01714908,0.0038676308,641.21985,630.2235,160.12547,28.534498,150.66005,160.30598,2.4800017,10.99633,28.997746
475.68695,0.017298535,0.0039495905,652.368,641.083,162.86404,27.897322,153.53833,163.71928,2.5765865,11.28501,28.350039
483.7995,0.01744436,0.0040309024,663.6329,652.0562,165.6284,27.253769,156.4437,167.14612,2.6750395,11.576651,27.69619
491.9941,0.017586503,0.004111498,675.01355,663.14246,168.42181,26.60418,159.38344,170.58533,2.775317,11.871128,27.036543
500.27057,0.017724913,0.004192173,686.51013,674.34174,171.24422,25.945545,162.35733,174.05792,2.877969,12.168332,26.368076
508.62766,0.017859543,0.004272102,698.1203,685.65216,174.09535,25.281113,165.36333,177.5436,2.982441,12.46811,25.694036
517.06586,0.017990356,0.004351039,709.8446,697.0742,176.97539,24.612143,168.4021,181.03635,3.0885618,12.770357,25.015678
525.5864,0.018117303,0.0044286675,721.6845,708.6095,179.88483,23.939928,171.47467,184.52888,3.1961005,13.074975,24.334288
534.1947,0.018240348,0.0045057326,733.64087,720.259,182.81903,23.261848,174.58278,188.04047,3.3055892,13.381863,23.647242
542.8882,0.01835946,0.0045821974,745.7121,732.02124,185.77873,22.578033,177.72473,191.57104,3.4169998,13.690871,22.954662
551.663,0.018474618,0.004657454,757.8972,743.8953,188.76765,21.891033,180.89893,195.10529,3.5298712,14.001862,22.2591
560.52075,0.018585792,0.004731196,770.1975,755.8828,191.78578,21.202242,184.10635,198.63571,3.6439555,14.314731,21.561937
569.4621,0.018692946,0.004803165,782.61346,767.9841,194.83328,20.512835,187.34769,202.15584,3.7590218,14.629353,20.864353
578.488,0.018796064,0.0048733903,795.147,780.2013,197.9111,19.822874,190.62163,205.6667,3.8750615,14.945633,20.166399
587.5989,0.018895138,0.0049417373,807.7974,792.53394,201.01859,19.13299,193.92839,209.16524,3.9919224,15.263443,19.468704
596.795,0.018990153,0.005007827,820.565,804.98236,204.15617,18.444927,197.27013,212.64119,4.1092477,15.582654,18.77301
606.07745,0.019081105,0.0050714305,833.45087,817.5477,207.32411,17.75964,200.64781,216.08891,4.226788,15.903163,18.080261
615.4474,0.019168004,0.005132294,846.4561,830.2312,210.52284,17.078356,204.0621,219.50142,4.3442616,16.224874,17.391687
624.90546,0.019250862,0.0051902332,859.5812,843.03345,213.75244,16.401987,207.51381,222.87346,4.4614267,16.54768,16.708195
634.4523,0.019329691,0.005245083,872.8262,855.9547,217.01297,15.731362,211.00337,226.20026,4.578046,16.871462,16.03061
644.08856,0.019404523,0.005296668,886.1924,868.99615,220.30487,15.067295,214.53143,229.47682,4.6938667,17.19614,15.3597355
653.8155,0.019475393,0.005344848,899.68054,882.1589,223.62843,14.410712,218.09886,232.69806,4.8086553,17.521631,14.696504
663.6334,0.019542333,0.0053895023,913.29095,895.4431,226.98367,13.762154,221.70601,235.86044,4.922184,17.847836,14.041446
673.5432,0.019605385,0.0054305093,927.0246,908.85,230.37126,13.122351,225.35358,238.95961,5.034216,18.174675,13.395293
683.54486,0.01966461,0.005467828,940.8807,922.37866,233.79039,12.491834,229.0418,241.99274,5.144574,18.502052,12.758569
693.6397,0.019720051,0.0055013257,954.8616,936.03174,237.24258,11.87128,232.77145,244.95537,5.2530046,18.82992,12.131951
703.8277,0.019771779,0.005530985,968.96606,949.8079,240.72685,11.261099,236.54282,247.84528,5.359337,19.158184,11.515842
714.1098,0.019819856,0.0055567585,983.19574,963.70905,244.24408,10.661772,240.35637,250.65948,5.4633813,19.486797,10.910725
724.4865,0.019864347,0.0055786474,997.55035,977.73474,247.79385,10.073617,244.21266,253.39632,5.5649815,19.815687,10.316908
734.958,0.019905325,0.0055965832,1012.0306,991.8857,251.37651,9.497156,248.11206,256.05215,5.6639132,20.144798,9.734916
745.52484,0.019942867,0.005610606,1026.6366,1006.16254,254.99254,8.932635,252.05501,258.62585,5.7600536,20.474077,9.164989
756.18756,0.01997705,0.005620777,1041.369,1020.5656,258.6417,8.380165,256.04172,261.11685,5.853303,20.80348,8.607236
766.9464,0.020007951,0.0056270543,1056.2278,1035.0948,262.3238,7.8402133,260.0726,263.52216,5.943451,21.132954,8.0621195
777.8022,0.020035654,0.005629491,1071.2137,1049.7513,266.03958,7.3130035,264.1483,265.8404,6.030388,21.46247,7.529865
788.75464,0.02006024,0.005628194,1086.3265,1064.5345,269.78854,6.798424,268.26868,268.07257,6.1140566,21.79197,7.0103545
799.80426,0.020081794,0.0056231674,1101.5665,1079.4452,273.57092,6.296965,272.43433,270.21564,6.1942925,22.121433,6.504077
810.9517,0.020100404,0.0056144907,1116.9342,1094.4834,277.38666,5.8085394,276.64554,272.2701,6.2710166,22.450829,6.010942
822.19635,0.020116156,0.0056022718,1132.4287,1109.6487,281.23572,5.3332715,280.9025,274.2356,6.3441734,22.780113,5.5310717
833.53955,0.020129142,0.0055865804,1148.052,1124.9427,285.11847,4.871178,285.20563,276.11194,6.413685,23.1093,5.064481
844.9812,0.020139445,0.0055675018,1163.8029,1140.3645,289.03436,4.422382,289.5552,277.89853,6.4794745,23.438343,4.611289
856.5213,0.020147149,0.005545147,1179.682,1155.9148,292.98386,3.986837,293.95126,279.59583,6.5415106,23.76723,4.171449
868.1605,0.020152347,0.005519613,1195.6897,1171.5939,296.96658,3.5645025,298.3944,281.20416,6.599745,24.095955,3.7449167
879.8984,0.020155123,0.0054910094,1211.8256,1187.401,300.9825,3.1553469,302.8845,282.72388,6.6541452,24.42449,3.331659
891.73584,0.020155566,0.005459462,1228.0903,1203.3374,305.03195,2.7593064,307.42215,284.1556,6.7047124,24.752853,2.9316096
903.6722,0.02015377,0.0054250746,1244.483,1219.402,309.11453,2.3763545,312.00696,285.49973,6.7514133,25.081024,2.54474
915.7084,0.020149818,0.0053879553,1261.0048,1235.5957,313.23007,2.006403,316.64,286.7568,6.7942376,25.409016,2.17096
927.84375,0.020143796,0.0053482675,1277.6544,1251.9176,317.3782,1.6492066,321.3206,287.9288,6.833237,25.736809,1.8100218
940.0794,0.020135786,0.005306076,1294.4335,1268.369,321.55963,1.3048925,326.04977,289.0148,6.868362,26.064434,1.4620512
952.41473,0.020125875,0.0052615614,1311.3412,1284.9493,325.7738,0.9730159,330.8269,290.01804,6.8997025,26.391891,1.1266011
964.85034,0.020114146,0.005214806,1328.3779,1301.6586,330.02032,0.65362483,335.65295,290.93826,6.9272327,26.719187,0.80371785
977.3866,0.020100685,0.0051652477,1345.5433,1318.497,334.29996,0.3497639,340.53107,291.75244,6.9500647,27.046343,0.49644417
990.013,0.020085573,0.0051030857,1362.8369,1335.4635,338.63553,0.10765073,345.48288,292.11154,6.9546733,27.373362,0.25099584
1002.70776,0.020068895,0.0050025475,1380.2697,1352.5691,343.09512,0.05140344,350.36688,291.07553,6.904864,27.700487,0.19148919
1015.49945,0.020050861,0.00490167,1397.8306,1369.8029,347.5891,0.006368771,355.293,289.96194,6.8517046,28.027708,0.14326929
1028.3854,0.020032095,0.004794941,1415.5183,1387.1626,352.1257,0.0,360.2623,288.56363,6.7873263,28.355799,0.13378775
1041.3651,0.020013047,0.004689195,1433.3324,1404.647,356.6951,0.0,365.27475,287.12442,6.721175,28.685347,0.13074575
1054.4388,0.019994117,0.0045856987,1451.2728,1422.256,361.2952,0.0,370.33102,285.69235,6.6551003,29.01692,0.12777293
1067.6064,0.019975582,0.0044844053,1469.3394,1439.9883,365.92447,0.0,375.43115,284.26752,6.589113,29.35091,0.1248677
1080.8673,0.019957619,0.0043852776,1487.5319,1457.8442,370.5838,0.0,380.57498,282.8497,6.52324,29.687592,0.122028455
1094.2233,0.01994033,0.004288263,1505.8507,1475.8236,375.2717,0.0,385.76367,281.43893,6.4574842,30.027163,0.11925384
1107.6716,0.019923778,0.0041933185,1524.2938,1493.9242,379.98804,0.0,390.9965,280.03522,6.39185,30.369694,0.1165423
1121.2134,0.01990798,0.004100418,1542.8625,1512.1472,384.7334,0.0,396.2735,278.6386,6.3263817,30.715275,0.11389247
1134.849,0.019892924,0.0040094946,1561.5565,1530.4926,389.50708,0.0,401.5951,277.2489,6.2610526,31.063927,0.11130284
1148.5779,0.019878604,0.0039205244,1580.3756,1548.9598,394.30927,0.0,406.9615,275.86612,6.1959004,31.415659,0.108772084
1162.4004,0.01986498,0.0038334571,1599.32,1567.5494,399.1398,0.0,412.37265,274.4902,6.130924,31.770456,0.1062988
1176.316,0.01985203,0.0037482565,1618.3884,1586.26,403.9983,0.0,417.82825,273.12112,6.0661345,32.128292,0.10388178
1190.3232,0.019839719,0.0036648896,1637.5798,1605.0908,408.88498,0.0,423.3281,271.7589,6.001549,32.489124,0.10151975
1204.4237,0.019828005,0.0035833125,1656.896,1624.043,413.79974,0.0,428.8728,270.40353,5.9371758,32.85294,0.09921143
1218.6163,0.019816855,0.0035034928,1676.3353,1643.1156,418.74265,0.0,434.46164,269.05487,5.8730283,33.219692,0.09695557
1232.9008,0.01980624,0.003425389,1695.8977,1662.3081,423.71344,0.0,440.09488,267.71292,5.809109,33.589355,0.09475104
1247.2775,0.019796131,0.003348967,1715.5831,1681.6213,428.71213,0.0,445.77274,266.3777,5.745432,33.96191,0.09259661
1261.7448,0.0197865,0.0032741965,1735.39,1701.0527,433.7385,0.0,451.4944,265.04916,5.682008,34.33729,0.0904912
1276.3042,0.01977731,0.0032010295,1755.3201,1720.6046,438.79285,0.0,457.2604,263.7271,5.6188316,34.715508,0.08843359
1290.9543,0.019768547,0.003129455,1775.3713,1740.275,443.87433,0.0,463.07086,262.41183,5.555945,35.09651,0.086422846
1305.6962,0.019760188,0.0030594177,1795.545,1760.0648,448.9839,0.0,468.92538,261.103,5.4933224,35.48031,0.08445772
1320.528,0.019752217,0.0029908943,1815.8395,1779.9727,454.12097,0.0,474.82373,259.80072,5.4309835,35.866856,0.08253733
1335.449,0.019744609,0.0029238586,1836.2538,1799.9977,459.28577,0.0,480.7641,258.50494,5.368947,36.256115,0.080660604
1350.4553,0.019737355,0.0028582783,1856.784,1820.136,464.47824,0.0,486.74374,257.21564,5.3072057,36.648006,0.07882659
1365.5471,0.019730434,0.0027941125,1877.4303,1840.388,469.6985,0.0,492.7631,255.93274,5.2457514,37.04251,0.07703425
1380.7262,0.019723838,0.0027313381,1898.1938,1860.7542,474.94562,0.0,498.8233,254.65625,5.1846094,37.43967,0.07528265
1395.9906,0.019717552,0.0026699363,1919.073,1881.2336,480.22015,0.0,504.92355,253.38615,5.1238027,37.83942,0.073570944
1411.3412,0.019711565,0.0026098613,1940.068,1901.8262,485.5215,0.0,511.06485,252.12239,5.0633082,38.241776,0.07189812
1426.778,0.019705871,0.0025510928,1961.1796,1922.5328,490.85025,0.0,517.247,250.8649,5.003151,38.64675,0.070263304
1442.3003,0.01970046,0.0024936064,1982.4061,1943.3518,496.20563,0.0,523.47003,249.61372,4.943341,39.054314,0.06866569
1457.9093,0.019695325,0.0024373673,2003.7489,1964.2844,501.58743,0.0,529.7346,248.36877,4.883872,39.464485,0.067104384
1473.604,0.019690454,0.0023823571,2025.2072,1985.3298,506.996,0.0,536.0404,247.12999,4.8247666,39.87725,0.06557857
1489.3844,0.019685842,0.0023285467,2046.7799,2006.4872,512.4305,0.0,542.38776,245.89742,4.7660227,40.292583,0.0640875
1505.25,0.019681485,0.002275911,2068.4675,2027.7567,517.8917,0.0,548.77673,244.67102,4.7076473,40.710514,0.06263029
1521.2012,0.019677376,0.0022244274,2090.2688,2049.138,523.3784,0.0,555.20734,243.45068,4.6496515,41.13101,0.06120621
