con,Omega,Theta,ygross,ynet,inv,Eind,scc,carbontax,Abatement,Dam,Emissions
77.4507,0.0028556,0.00020024528,105.17594,104.8756,27.403902,33.05578,16.095753,14.450247,0.021060988,0.3003404,35.65578
79.68616,0.0031232077,0.00022811245,108.670265,108.330864,28.619995,33.40871,16.49465,15.773466,0.02478904,0.33939984,35.949593
82.09467,0.0033531105,0.00025283635,112.31593,111.939316,29.816341,33.806137,16.924006,16.930208,0.028397549,0.37660772,36.28925
84.68483,0.0035534613,0.00027421143,116.09767,115.68513,30.968573,34.23936,17.38465,17.930391,0.03183531,0.4125486,36.666008
87.41449,0.0037312421,0.00029331603,120.002365,119.5546,32.10505,34.69414,17.875216,18.829178,0.035198618,0.44775784,37.065613
90.27115,0.0038921877,0.00031043982,124.02218,123.53946,33.22995,35.164238,18.392982,19.644514,0.03850142,0.48271763,37.48179
93.24645,0.00404087,0.00032572803,128.15062,127.63278,34.34475,35.64551,18.933578,20.38632,0.04174225,0.51783997,37.910366
96.30762,0.0041808747,0.00033970724,132.38249,131.82901,35.476624,36.13217,19.493118,21.077688,0.04497129,0.55347455,38.34553
99.47635,0.004314977,0.0003526335,136.71269,136.1228,36.59844,36.620415,20.071194,21.730099,0.04820948,0.5899122,38.78345
102.72263,0.004445298,0.00036475933,141.137,140.5096,37.73571,37.10693,20.66545,22.354225,0.05148103,0.627396,39.22078
106.04749,0.0045734467,0.0003762205,145.6527,144.98656,38.884518,37.589848,21.276045,22.955864,0.054797526,0.6661348,39.655636
109.45058,0.004700632,0.0003870567,150.25882,149.55249,40.044033,38.068058,21.899347,23.537113,0.05815868,0.7063114,40.086872
112.92828,0.0048277546,0.00039798953,154.9545,154.20642,41.21676,38.536583,22.536398,24.125233,0.061670266,0.7480823,40.509495
116.5049,0.0049554794,0.00040901612,159.73727,158.9457,42.375782,38.99423,23.193232,24.720322,0.06533512,0.7915747,40.922283
120.144455,0.005084289,0.00041993486,164.60371,163.76683,43.553608,39.441387,23.862698,25.314959,0.06912284,0.8368929,41.325607
123.84784,0.005214521,0.00043083326,169.55397,168.66985,44.749332,39.877037,24.544239,25.91265,0.073049486,0.8841428,41.71841
127.614395,0.0053464137,0.00044191384,174.58717,173.65376,45.962627,40.29966,25.23676,26.520939,0.07715249,0.9334153,42.099167
131.44217,0.005480123,0.00045332374,179.70392,178.71912,47.195927,40.70792,25.942417,27.145449,0.08146405,0.9847996,42.466507
135.33217,0.005615746,0.00046484065,184.90456,183.86618,48.44855,41.103386,26.657854,27.77798,0.085951164,1.038377,42.82199
139.28462,0.0057533314,0.0004764649,190.18991,189.09567,49.720963,41.485794,27.383099,28.41877,0.090618804,1.0942255,43.16532
143.30742,0.005892899,0.00048787514,195.56067,194.40826,51.006,41.85741,28.119957,29.056107,0.0954092,1.1524193,43.498753
147.39441,0.00603444,0.00049947243,201.01561,199.80261,52.308407,42.21512,28.866556,29.704847,0.10040176,1.2130166,43.819138
151.54697,0.0061779404,0.0005113404,206.55511,205.27902,53.6271,42.558167,29.623623,30.368195,0.10561998,1.2760853,44.125713
155.78009,0.006323363,0.0005237511,212.18037,210.83868,54.948174,42.884853,30.391079,31.05615,0.1111297,1.3416936,44.416756
160.07626,0.006470666,0.00053649803,217.88957,216.47966,56.28726,43.19589,31.167158,31.76132,0.11689732,1.4098905,44.69296
164.39772,0.0066197896,0.0005496618,223.68329,222.20256,57.682705,43.490936,31.950909,32.48663,0.122950174,1.4807363,44.953968
168.81364,0.006770671,0.0005634007,229.56023,228.00594,59.06384,43.768284,32.747055,33.238026,0.12933439,1.5542768,45.198048
173.28044,0.006923244,0.00057746185,235.52489,233.89427,60.478767,44.030663,33.556953,34.006306,0.13600664,1.630596,45.42792
177.81036,0.00707743,0.0005919556,241.58011,239.87035,61.918003,44.277454,34.381107,34.79568,0.1430047,1.7097664,45.64294
182.41298,0.0072331554,0.0006064707,247.72583,245.934,63.371853,44.511517,35.22138,35.59134,0.15023845,1.7918395,45.845955
187.08574,0.007390343,0.00062127446,253.95934,252.08247,64.84012,44.730312,36.074955,36.40313,0.15777846,1.8768466,46.034412
191.8168,0.007548924,0.00063640095,260.2803,258.31543,66.33425,44.933556,36.93848,37.23238,0.16564262,1.9648362,46.208
196.60709,0.007708826,0.0006518274,266.6898,264.63394,67.854355,45.12143,37.812122,38.078434,0.17383571,2.0558653,46.366894
201.48572,0.0078699775,0.0006673047,273.1888,271.03885,69.37225,45.29578,38.697998,38.932518,0.1823002,2.1499898,46.512928
206.42848,0.008032302,0.0006830318,279.77783,277.53058,70.91252,45.45531,39.594414,39.801895,0.19109716,2.2472603,46.644783
211.43393,0.00819573,0.0006990105,286.45773,284.11,72.47746,45.60001,40.501347,40.686817,0.20023696,2.3477302,46.762436
216.50267,0.008360192,0.0007152231,293.2293,290.77786,74.06722,45.730076,41.41892,41.586838,0.20972435,2.4514534,46.866077
221.62567,0.0085256165,0.0007317667,300.09354,297.53506,75.69164,45.845024,42.34588,42.505527,0.21959847,2.5584824,46.955193
226.81618,0.008691931,0.0007486864,307.0512,304.38235,77.33829,45.944496,43.285225,43.44472,0.22988507,2.668868,47.029423
232.08449,0.008859067,0.0007660749,314.10306,311.32043,78.99744,46.027912,44.24204,44.40788,0.24062648,2.7826602,47.088173
237.42381,0.009026949,0.0007837183,321.24875,318.34885,80.67554,46.096695,45.21008,45.38753,0.2517685,2.8998961,47.132847
242.8482,0.009195505,0.00080163,328.48892,325.4683,82.359184,46.150917,46.189896,46.384308,0.2633266,3.0206213,47.163506
248.33589,0.009364657,0.00081981183,335.82285,332.67798,84.06936,46.190346,47.18063,47.398483,0.27531153,3.1448658,47.179913
253.89844,0.009534335,0.00083858223,343.2514,339.97876,85.795204,46.21295,48.1921,48.441536,0.28784454,3.272674,47.180016
259.56784,0.009704464,0.00085810263,350.77225,347.36823,87.50226,46.217087,49.232677,49.51946,0.30099857,3.4040565,47.162163
265.29578,0.009874968,0.0008780693,358.38406,354.84503,89.23765,46.204952,50.284485,50.621536,0.31468606,3.5390313,47.128544
271.0841,0.010045765,0.00089843874,366.08795,362.41034,91.00063,46.17697,51.347733,51.746475,0.32890758,3.6776335,47.07956
276.93417,0.01021677,0.00091917964,373.88538,370.0655,92.79117,46.133583,52.422646,52.893356,0.34366783,3.8199008,47.01565
282.83932,0.0103878975,0.0009403781,381.77713,377.81128,94.61666,46.07444,53.509598,54.065388,0.35901487,3.9658616,46.936447
288.80475,0.010559073,0.0009618706,389.76688,385.6513,96.47561,46.00099,54.609074,55.257133,0.3749053,4.1155767,46.843403
294.84418,0.010730213,0.0009834603,397.85803,393.58893,98.35766,45.91523,55.72178,56.46171,0.39127758,4.269101,46.738483
300.95764,0.010901242,0.0010051343,406.05075,401.6243,100.26296,45.817196,56.8477,57.679,0.40813553,4.426457,46.62173
307.1418,0.01107209,0.0010269773,414.34573,409.75812,102.19547,45.70648,57.9874,58.91217,0.42552367,4.5876737,46.49272
313.40512,0.011242689,0.0010486849,422.74283,417.9901,104.14664,45.58502,59.145676,60.15085,0.44332406,4.752766,46.353382
319.73386,0.011412977,0.0010705217,431.24213,426.32037,106.13014,45.45121,60.318264,61.404465,0.46165404,4.9217567,46.202103
326.15945,0.011582896,0.0010918531,439.84317,434.7485,108.11438,45.30929,61.508602,62.65104,0.48024416,5.0946574,46.043114
332.65887,0.0117523875,0.001112968,448.54517,443.27368,110.12146,45.157425,62.713757,63.90079,0.49921638,5.271477,45.87456
339.21924,0.011921401,0.0011341927,457.3483,451.89606,112.16427,44.99328,63.93146,65.165596,0.5187211,5.4522324,45.694107
345.86975,0.012089893,0.0011555861,466.25397,460.617,114.21494,44.816647,65.161804,66.44775,0.53879654,5.6369605,45.501545
352.60544,0.012257812,0.0011771691,475.26108,469.43542,116.27734,44.62746,66.40469,67.74815,0.55946267,5.825661,45.29678
359.41046,0.012425099,0.0011989052,484.36884,478.35052,118.366554,44.42578,67.660706,69.0659,0.5807123,6.01833,45.079887
366.28632,0.012591698,0.0012207624,493.57852,487.36346,120.482254,44.212147,68.92999,70.40007,0.6025421,6.2149916,44.851376
373.23416,0.012757551,0.001242715,502.89066,496.475,122.623856,43.98698,70.21271,71.749855,0.6249498,6.4156528,44.611675
380.25128,0.012922599,0.0012646313,512.30615,505.68585,124.79503,43.751255,71.50676,73.11094,0.6478784,6.6203265,44.361748
387.34326,0.01308678,0.0012869062,521.8309,515.0018,126.995735,43.50272,72.8166,74.49767,0.6715474,6.829086,44.099327
394.49924,0.01325004,0.0013096269,531.46594,524.424,129.23799,43.241108,74.15638,75.913284,0.6960221,7.041945,43.82415
401.7362,0.013412316,0.001332104,541.2103,533.9514,131.50395,42.97112,75.51222,77.33356,0.7209484,7.2588835,43.54091
409.0551,0.01357355,0.0013544387,551.0645,543.5846,133.79326,42.69219,76.88325,78.76228,0.74638313,7.479902,43.24902
416.45587,0.013733686,0.0013766161,561.02875,553.3237,136.10611,42.4045,78.269455,80.19916,0.7723212,7.7049932,42.948673
423.94006,0.013892673,0.0013986169,571.1038,563.16974,138.44197,42.10833,79.6711,81.64367,0.79875547,7.934159,42.64013
431.51242,0.014050467,0.0014204751,581.28973,573.1224,140.79579,41.803547,81.087814,83.097244,0.8257076,8.167392,42.323254
439.19394,0.0142070195,0.0014425066,591.5869,583.18225,143.14705,41.48804,82.51916,84.571465,0.853368,8.404686,41.99593
446.94556,0.0143622905,0.0014645339,601.99054,593.3446,145.53008,41.16283,83.96556,86.06022,0.8816355,8.645962,41.659172
454.7773,0.014516239,0.0014864292,612.5024,603.6112,147.93669,40.828987,85.42765,87.55916,0.9104415,8.891232,41.31404
462.68484,0.014668809,0.0015082558,623.1228,613.98236,150.37148,40.48645,86.90461,89.070526,0.9398286,9.1404705,40.960472
470.66025,0.014819961,0.0015301254,633.85254,624.45886,152.84311,40.13427,88.39628,90.598976,0.96987385,9.39367,40.59752
478.71304,0.014969648,0.0015519068,644.68994,635.0392,155.34059,39.77365,89.90287,92.13966,1.0004988,9.650782,40.226368
486.844,0.015117825,0.0015735691,655.6356,645.7238,157.86375,39.404892,91.424545,93.69177,1.031688,9.911784,39.847313
495.0523,0.015264445,0.0015951722,666.6906,656.5139,160.41438,39.02776,92.96192,95.257706,1.0634863,10.176662,39.46012
503.35196,0.01540947,0.0016167605,677.85736,667.4119,162.98088,38.64224,94.51654,96.8393,1.0959328,10.445423,39.064774
511.75418,0.015552858,0.0016382455,689.1388,678.4208,165.55513,38.249153,96.08879,98.43362,1.1289786,10.718078,38.662075
520.2277,0.015694562,0.0016599685,700.5329,689.5383,168.16606,37.846264,97.67827,100.05333,1.1628627,10.994557,38.249798
528.7922,0.015834546,0.0016817099,712.03815,700.76337,170.79272,37.435028,99.28833,101.69077,1.1974417,11.2748,37.829388
537.4448,0.015972767,0.0017030439,723.654,712.0953,173.4377,37.018677,100.9123,103.33012,1.2324146,11.558757,37.404068
546.16016,0.016109176,0.0017246414,735.3836,723.53723,176.12921,36.592663,102.54944,104.99678,1.268273,11.846424,36.969296
554.9642,0.016243743,0.0017465173,747.22424,735.08655,178.83855,36.156963,104.20598,106.69158,1.30504,12.137718,36.52503
563.8785,0.016376419,0.0017686919,759.17444,746.7419,181.54268,35.71151,105.88419,108.415634,1.3427458,12.432559,36.071205
572.8749,0.016507167,0.0017906706,771.2332,758.5023,184.26921,35.25989,107.57838,110.15055,1.3810246,12.730876,35.61141
581.96014,0.016635938,0.0018117573,783.40186,770.3692,187.01329,34.807194,109.29045,111.8701,1.419334,13.032624,35.150715
591.09436,0.016762687,0.0018325342,795.6851,782.3473,189.8193,34.34962,111.013016,113.59649,1.4581202,13.337821,34.685333
600.3243,0.016887393,0.0018530267,808.0838,794.4373,192.64099,33.887337,112.75015,115.3305,1.4974009,13.646428,34.215416
609.6166,0.017010026,0.0018730966,820.5981,806.6397,195.51225,33.421303,114.50154,117.06724,1.5370594,13.958394,33.741924
618.984,0.017130578,0.0018928396,833.2303,818.9566,198.42236,32.95115,116.269714,118.8103,1.5771711,14.273715,33.26448
628.438,0.017249018,0.0019115289,845.98303,831.3906,201.36342,32.48224,118.05417,120.53157,1.6171209,14.592376,32.78845
637.9839,0.017365336,0.0019296363,858.85406,843.9398,204.32747,32.011314,119.85554,122.249115,1.657276,14.91429,32.31056
647.635,0.01747953,0.0019478172,871.8435,856.60406,207.30048,31.533817,121.67636,123.98871,1.6981918,15.239413,31.826258
657.34393,0.017591588,0.0019671288,884.951,869.38324,210.32916,31.042633,123.51491,125.7919,1.7408127,15.567693,31.328424
667.1531,0.017701503,0.0019878228,898.17883,882.27966,213.37283,30.536007,125.36986,127.669846,1.7854203,15.899115,30.815302
677.1475,0.017809236,0.0020104733,911.5254,895.2919,216.34438,30.00999,127.237366,129.64627,1.8325975,16.23357,30.282932
687.18964,0.017914727,0.002033278,924.9798,908.40906,219.37231,29.477236,129.1136,131.65034,1.8807411,16.57076,29.743973
697.31775,0.018017892,0.002055823,938.54315,921.6325,222.42003,28.940704,131.00603,133.66612,1.9294786,16.910568,29.201372
707.53033,0.018118663,0.0020780012,952.21436,934.96136,225.48822,28.401367,132.91144,135.68935,1.9787025,17.25285,28.65611
717.8168,0.018216984,0.0020988549,965.9994,948.40186,228.59445,27.866285,134.83946,137.68146,2.0274925,17.597595,28.115236
728.08704,0.01831282,0.0021191856,979.90674,961.9619,231.83627,27.330238,136.77843,139.67453,2.0766041,17.944855,27.573528
738.46967,0.018406164,0.002138704,993.9363,975.6417,235.0854,26.795298,138.73627,141.65692,2.1257355,18.294554,27.033058
748.96344,0.018497009,0.0021574309,1008.08716,989.44055,238.34253,26.261517,140.71289,143.62909,2.1748784,18.646597,26.493872
759.5675,0.018585365,0.002175379,1022.35895,1003.35803,241.60779,25.728941,142.7082,145.59134,2.224018,19.000914,25.95601
770.2814,0.018671244,0.002192559,1036.7504,1017.39294,244.88078,25.197548,144.72214,147.54407,2.2731364,19.35742,25.419455
781.0943,0.018754657,0.002213707,1051.2615,1031.5455,248.16763,24.634268,146.7586,149.68402,2.3271852,19.716051,24.85113
792.0257,0.018835625,0.002236178,1065.8813,1045.8048,251.44052,24.057535,148.81601,151.90344,2.3835003,20.076542,24.269464
803.04724,0.018914074,0.0022582544,1080.6088,1060.1702,254.72868,23.479704,150.89056,154.13104,2.4402897,20.438715,23.686815
814.1394,0.018989934,0.002279993,1095.445,1074.6425,258.05298,22.900366,152.98085,156.3697,2.4976068,20.802427,23.102768
825.3259,0.019063156,0.0023017086,1110.3876,1089.22,261.3871,22.317646,155.09192,158.63252,2.5557885,21.167492,22.515444
836.5849,0.019133706,0.0023260552,1125.4409,1103.9071,264.7545,21.713104,157.20927,161.03317,2.6178377,21.533854,21.906408
847.84753,0.01920156,0.0023527232,1140.6096,1118.7081,268.22867,21.089323,159.31761,163.56007,2.6835387,21.901485,21.278233
859.1884,0.019266646,0.0023784314,1155.8977,1133.6274,271.7428,20.469463,161.43942,166.07394,2.7492235,22.270273,20.654078
870.64935,0.019328868,0.0024031333,1171.3068,1148.6667,275.25702,19.853909,163.58069,168.57275,2.8148062,22.640036,20.034323
882.2179,0.019388184,0.00242706,1186.8351,1163.8245,278.7819,19.241144,165.73805,171.06631,2.8805199,23.010578,19.41746
893.8556,0.019444577,0.0024504594,1202.4841,1179.1024,282.35748,18.629658,167.89891,173.56514,2.9466386,23.381794,18.80196
905.58514,0.01949805,0.0024732265,1218.2546,1194.501,285.9616,18.020317,170.06595,176.06468,3.0130198,23.753592,18.188704
917.4115,0.019548614,0.0024945375,1234.1475,1210.0216,289.59174,17.418898,172.24974,178.52875,3.078627,24.125872,17.583454
929.36273,0.019596279,0.002514694,1250.1608,1225.6622,293.21732,16.82346,174.45296,180.9699,3.143772,24.498499,16.984274
941.34485,0.019641086,0.0025357776,1266.294,1241.4225,296.92978,16.219742,176.65422,183.48027,3.2110398,24.87139,16.3769
953.4314,0.019683076,0.0025558986,1282.5447,1257.3003,300.65533,15.620844,178.86987,185.97656,3.2780542,25.244427,15.774428
965.59973,0.01972226,0.0025722096,1298.9144,1273.297,304.42197,15.046553,181.1125,188.33006,3.34108,25.617529,15.196647
977.86584,0.01975866,0.0025872577,1315.4122,1289.4214,308.2195,14.479587,183.36963,190.6533,3.40331,25.990782,14.6262665
990.18805,0.019792357,0.0026015728,1332.0342,1305.67,312.08527,13.916391,185.63193,192.9697,3.465384,26.364098,14.059737
1002.61395,0.019823417,0.002614649,1348.7812,1322.0437,315.97314,13.360527,187.9115,195.25581,3.5265894,26.737455,13.500613
1015.1417,0.019851902,0.002626356,1365.6532,1338.5422,319.88495,12.813043,190.20845,197.50479,3.5866911,27.110811,12.949942
1027.7723,0.01987787,0.0026370152,1382.6483,1355.1642,323.81827,12.271901,192.51535,199.73047,3.6460645,27.484102,12.405688
1040.5178,0.019901382,0.0026459398,1399.7705,1371.9132,327.76535,11.742036,194.839,201.89973,3.7037086,27.857368,11.872782
1053.3912,0.01992248,0.0026533334,1417.0151,1388.7848,331.70865,11.222111,197.18425,204.02097,3.759814,28.230457,11.349885
1066.3479,0.019941237,0.0026595881,1434.3756,1405.7725,335.68585,10.709524,199.54443,206.11151,3.8148487,28.603226,10.834393
1079.4027,0.019957714,0.0026647523,1451.8522,1422.8765,339.68216,10.204151,201.92096,208.17247,3.8688266,28.975649,10.32618
1092.5623,0.019971967,0.0026689025,1469.4446,1440.0968,343.6911,9.70558,204.31429,210.20667,3.9218044,29.347698,9.824835
1105.835,0.019984055,0.0026720744,1487.15,1457.4307,347.70148,9.213704,206.72525,212.21503,3.9737756,29.71929,9.330246
1119.2218,0.01999402,0.002674315,1504.9688,1474.8783,351.71216,8.728468,209.15388,214.19844,4.0247602,30.090374,8.8423605
1132.7203,0.020001903,0.0026756264,1522.8999,1492.439,355.72546,8.249854,211.6,216.15677,4.0747113,30.460897,8.361156
1146.2046,0.020007748,0.0026756406,1540.9426,1510.1119,359.86673,7.7807384,214.05368,218.07002,4.1230087,30.830793,7.8895106
1159.7712,0.020011595,0.002674688,1559.097,1527.8971,364.03918,7.318902,216.52257,219.9538,4.1700983,31.20002,7.4252005
1173.444,0.020013485,0.0026728918,1577.3608,1545.7924,368.2165,6.8636413,219.00833,221.81319,4.216115,31.568487,6.967523
1187.2228,0.020013463,0.0026702585,1595.7332,1563.797,372.3984,6.415111,221.5108,223.64735,4.2610197,31.936144,6.516631
1201.1093,0.02001157,0.0026668003,1614.215,1581.912,376.58414,5.973351,224.03036,225.45615,4.304789,32.302975,6.0725627
1215.1029,0.020007843,0.0026625355,1632.8049,1600.1361,380.77283,5.538414,226.56667,227.23927,4.347401,32.668907,5.6353693
1229.2029,0.020002315,0.0026574768,1651.5027,1618.469,384.9649,5.110328,229.11989,228.99663,4.38883,33.03388,5.205079
1243.4088,0.01999502,0.002651646,1670.3079,1636.9099,389.16083,4.689104,231.68976,230.72823,4.429065,33.39784,4.7817006
1257.7219,0.019985994,0.0026450458,1689.2188,1655.4581,393.35745,4.274908,234.27629,232.43298,4.468061,33.76072,4.365399
1272.1421,0.019975279,0.0026376885,1708.2372,1674.1145,397.5567,3.867708,236.87975,234.11098,4.5057974,34.122513,3.9561417
1286.621,0.019962898,0.0026292736,1727.3602,1692.8771,401.80508,3.4700136,239.49509,235.74368,4.5417027,34.483112,3.5564365
1301.1165,0.019948892,0.00261959,1746.5876,1711.7451,406.14456,3.0833998,242.11827,237.3185,4.575343,34.84249,3.1678576
1315.7054,0.019933295,0.0026093072,1765.915,1730.7146,410.4932,2.7031786,244.75688,238.87073,4.607815,35.200504,2.7857158
1330.3932,0.019916164,0.0025973397,1785.3427,1749.7855,414.84753,2.3375914,247.4086,240.33725,4.6371417,35.55718,2.418252
1345.1869,0.019897547,0.0025833393,1804.877,1768.9646,419.2078,1.9894994,250.07684,241.69507,4.6626096,35.912624,2.068326
1360.0159,0.0198775,0.0025669842,1824.527,1788.26,423.65366,1.6615548,252.77516,242.92204,4.6835318,36.267036,1.7385892
1374.9551,0.019856103,0.0025497084,1844.29,1807.6697,428.10562,1.3433343,255.49374,244.09764,4.702402,36.620415,1.418617
1390.0138,0.01983345,0.0025317867,1864.1631,1827.1904,432.55054,1.0330158,258.23044,245.23569,4.7196636,36.972786,1.1065868
1405.1481,0.019809633,0.0025125009,1884.1449,1846.8206,437.03256,0.7361123,260.985,246.29219,4.7339153,37.32422,0.8080104
1420.2264,0.019784711,0.0024900932,1904.2401,1866.5653,441.69098,0.46647954,263.73578,247.1564,4.741735,37.67484,0.53674287
1435.2904,0.019758767,0.0024643645,1924.4569,1886.4321,446.49292,0.22626649,266.50302,247.8083,4.7425632,38.024895,0.2949322
1450.4944,0.019731902,0.0024327917,1944.8091,1906.4343,451.3022,0.035850305,269.3103,248.08174,4.7313156,38.37478,0.10295469
1466.0029,0.019704266,0.0023807895,1965.3114,1926.5864,455.99664,0.0124694845,272.2111,247.0299,4.6789927,38.725018,0.07804805
1481.6888,0.019676069,0.0023285467,1985.9208,1946.8456,460.62347,0.0,275.1419,245.89742,4.624309,39.075115,0.0640875
