con,Omega,Theta,ygross,ynet,inv,Eind,scc,carbontax,Abatement,Dam,Emissions
77.071075,0.0028556,0.00026438115,105.17594,104.8756,27.776802,32.62839,15.029083,17.144806,0.027806537,0.3003404,35.22839
79.617615,0.0031388626,0.0002708548,108.725075,108.383804,28.736832,33.14639,15.432699,17.531826,0.029448707,0.34127304,35.687275
82.25656,0.0033709765,0.00027768314,112.3814,112.002556,29.714901,33.66565,15.85743,17.935549,0.031206418,0.37883508,36.148758
84.99649,0.0035638516,0.00028508995,116.14327,115.729355,30.699879,34.183186,16.304354,18.364855,0.033111278,0.41391736,36.609837
87.80275,0.0037275476,0.00029262502,120.00585,119.55852,31.720793,34.69956,16.76974,18.801868,0.035116713,0.4473275,37.071037
90.69851,0.0038701342,0.00029983747,123.97165,123.49186,32.75632,35.217537,17.265604,19.228893,0.03717134,0.4797869,37.535095
93.68352,0.003997881,0.0003069411,128.0378,127.52592,33.803257,35.734283,17.79079,19.654493,0.03930006,0.51187986,37.99914
96.74025,0.004115558,0.00031405652,132.20119,131.6571,34.87551,36.24747,18.338741,20.083538,0.041518647,0.5440817,38.46083
99.87108,0.0042267367,0.00032134494,136.46194,135.88516,35.970413,36.75537,18.910063,20.522469,0.043851357,0.5767887,38.918407
103.07541,0.00433405,0.00032886086,140.81973,140.20941,37.08789,37.256893,19.503864,20.9735,0.046310097,0.6103198,39.370743
106.35333,0.004439417,0.00033667733,145.274,144.62907,38.22704,37.75095,20.120068,21.439491,0.04891047,0.64493185,39.81674
109.70475,0.004544214,0.00034484395,149.82414,149.14333,39.387135,38.236225,20.75838,21.92252,0.05166595,0.6808329,40.255043
113.13174,0.0046494203,0.00035339853,154.46948,153.7513,40.565216,38.71195,21.419249,22.424015,0.054589286,0.71819353,40.684864
116.63216,0.0047557135,0.0003623694,159.20912,158.45197,41.76239,39.176968,22.101645,22.945192,0.057692517,0.757153,41.105022
120.20106,0.004863555,0.00037178054,164.04222,163.2444,42.98265,39.63063,22.803623,23.48693,0.060987707,0.7978284,41.51485
123.83832,0.004973246,0.00038164775,168.96849,168.12816,44.22568,40.072083,23.525015,24.04994,0.064486444,0.8403218,41.913456
127.54605,0.00508497,0.00039198593,173.98746,173.10274,45.488842,40.500904,24.266108,24.634718,0.06820063,0.884721,42.30041
131.32751,0.005198827,0.0004027991,179.09871,178.16759,46.768326,40.91634,25.028046,25.24152,0.0721408,0.93110317,42.67493
135.17838,0.005314858,0.00041409582,184.30159,183.32204,48.067745,41.318054,25.80918,25.870592,0.07631852,0.9795368,43.036655
139.09833,0.0054330654,0.0004258794,189.59592,188.56583,49.387196,41.70541,26.60926,26.522158,0.080745,1.030087,43.384933
143.08693,0.005553416,0.00043816204,194.9815,193.89868,50.726795,42.07812,27.428026,27.196623,0.08543349,1.0828134,43.719463
147.14378,0.0056758597,0.00045094613,200.45819,199.32042,52.086765,42.435856,28.265291,27.894102,0.09039585,1.1377726,44.039875
151.26884,0.0058003343,0.00046424335,206.02623,204.8312,53.467278,42.778248,29.120924,28.615065,0.09564631,1.195021,44.345795
155.46173,0.005926767,0.00047805818,211.68552,210.43088,54.86855,43.105064,29.994734,29.359673,0.101197995,1.2546107,44.636967
159.72243,0.0060550794,0.00049239886,217.43628,216.11967,56.29083,43.415913,30.886694,30.12831,0.10706537,1.3165939,44.912983
164.05087,0.0061851917,0.00050727534,223.27875,221.89775,57.734303,43.71081,31.796738,30.921278,0.1132638,1.3810219,45.173847
168.447,0.0063170227,0.00052269327,229.21315,227.7652,59.199127,43.989326,32.724823,31.738901,0.119808175,1.4479448,45.419098
172.91084,0.0064504878,0.0005386645,235.23994,233.72252,60.685764,44.251534,33.67091,32.58156,0.1267154,1.5174124,45.648796
177.44269,0.0065855044,0.0005551968,241.35947,239.77,62.194195,44.49703,34.635113,33.44966,0.134002,1.5894738,45.862514
182.04248,0.006721994,0.0005721492,247.57213,245.90796,63.7248,44.72693,35.617706,34.337982,0.14164819,1.6641784,46.06137
186.70999,0.0068598716,0.0005896431,253.87791,252.13634,65.27767,44.940125,36.61833,35.25112,0.14969735,1.74157,46.24422
191.44534,0.0069990624,0.00060771394,260.27728,258.45557,66.85317,45.13642,37.636906,36.19042,0.15817414,1.8216969,46.410866
196.24905,0.007139487,0.00062636955,266.7709,264.86627,68.45131,45.315693,38.67375,37.15624,0.16709717,1.9046075,46.56116
201.12105,0.0072810715,0.0006456191,273.35922,271.36887,70.07259,45.477844,39.72877,38.149,0.17648593,1.990348,46.694992
206.06174,0.0074237385,0.00066547125,280.04282,277.96384,71.71715,45.622906,40.802135,39.16902,0.18636043,2.0789645,46.81238
211.07567,0.007567414,0.00068585225,286.82233,284.65182,73.380936,45.751347,41.897285,40.213776,0.19671774,2.1705034,46.913776
216.1611,0.0077120205,0.0007067597,293.69745,291.43246,75.0654,45.86307,43.013474,41.28331,0.20757352,2.2650006,46.99907
221.31525,0.007857486,0.00072826736,300.6683,298.30582,76.77333,45.95762,44.148083,42.380325,0.21896695,2.3624969,47.067787
226.53851,0.008003737,0.00075038587,307.7355,305.27246,78.5049,46.034855,45.30118,43.505383,0.23092037,2.4630342,47.11978
231.83127,0.008150703,0.00077311887,314.89978,312.33313,80.26038,46.09485,46.473103,44.658714,0.24345496,2.5666547,47.155106
237.19382,0.008298311,0.00079647766,322.16177,319.48834,82.04006,46.137596,47.663918,45.84085,0.25659466,2.6733987,47.173748
242.62665,0.008446489,0.0008204649,329.52216,326.73883,83.84409,46.163223,48.873894,47.05197,0.27036133,2.7833052,47.17581
248.13025,0.008595162,0.0008450913,336.98166,334.08524,85.6727,46.171684,50.10326,48.292645,0.28478026,2.896412,47.16125
253.7048,0.008744262,0.00087036344,344.5409,341.52814,87.52608,46.163097,51.352165,49.56321,0.2998758,3.0127559,47.130165
259.3508,0.008893718,0.00089627906,352.20056,349.0682,89.40452,46.137386,52.62087,50.86384,0.31566998,3.1323726,47.08246
265.0687,0.009043458,0.00092284725,359.96133,356.70602,91.30814,46.09476,53.909492,52.194923,0.33218932,3.255295,47.01835
270.85864,0.00919341,0.00095007266,367.8237,364.44217,93.237236,46.035183,55.218277,53.55686,0.34945926,3.3815541,46.93777
276.7213,0.009343506,0.0009779528,375.7886,372.27737,95.19204,45.95881,56.547466,54.949757,0.36750352,3.511183,46.840874
282.65988,0.009493674,0.0010064587,383.85657,380.21234,97.1698,45.86602,57.897953,56.372746,0.38633573,3.644209,46.728027
288.67545,0.0096438425,0.0010355369,392.02692,388.24628,99.168816,45.756927,59.26985,57.824345,0.40595835,3.780646,46.599342
294.76306,0.009793943,0.0010652266,400.29932,396.37885,101.19351,45.63147,60.66151,59.306023,0.4264095,3.9205084,46.454723
300.92273,0.009943909,0.0010955152,408.67416,404.61032,103.24433,45.48974,62.073032,60.817657,0.44770873,4.0638185,46.294273
307.15536,0.010093671,0.0011264107,417.15234,412.94177,105.321266,45.331936,63.504917,62.359715,0.46988487,4.210599,46.11818
313.4615,0.010243164,0.0011578985,425.7347,421.3738,107.424446,45.15811,64.9573,63.932106,0.49295756,4.360871,45.92648
319.84137,0.010392322,0.0011899817,434.4219,429.90726,109.5543,44.968586,66.4305,65.535065,0.5169541,4.5146527,45.719482
326.29596,0.010541075,0.0012226467,443.21497,438.543,111.71086,44.763416,67.92484,67.16859,0.54189533,4.671962,45.497234
332.82507,0.01068936,0.0012558919,452.1141,447.28134,113.8945,44.54291,69.44046,68.83276,0.5678064,4.832811,45.260044
339.42944,0.01083711,0.001289704,461.12018,456.123,116.105225,44.307213,70.97767,70.52756,0.59470856,4.9972105,45.00804
346.10965,0.010984262,0.0013240735,470.23407,465.0689,118.34347,44.056526,72.53672,72.25294,0.62262446,5.1651745,44.741425
352.86603,0.011130753,0.0013589886,479.4563,474.1196,120.609215,43.791183,74.11792,74.00877,0.6515756,5.33671,44.460503
359.6989,0.011276519,0.0013944274,488.78732,483.27554,122.90272,43.511227,75.72134,75.79486,0.68157846,5.5118194,44.165333
366.60898,0.011421503,0.0014303772,498.22806,492.53754,125.22404,43.21702,77.34738,77.61104,0.7126541,5.690513,43.856247
373.59622,0.011565636,0.0014668297,507.77887,501.9061,127.57363,42.908817,78.996155,79.45729,0.7448251,5.8727856,43.533512
380.6614,0.011708863,0.0015037584,517.4405,511.3819,129.95149,42.58685,80.66793,81.33322,0.77810556,6.05864,43.197342
387.8045,0.011851124,0.001541135,527.21344,520.9654,132.35799,42.251335,82.36299,83.23837,0.8125071,6.248072,42.847946
395.0265,0.011992366,0.001578953,537.0985,530.6574,134.79305,41.902645,84.081505,85.17269,0.84805334,6.441082,42.485687
402.32712,0.012132528,0.0016171802,547.0959,540.4582,137.25708,41.54101,85.82364,87.13566,0.8847526,6.6376557,42.1108
409.70697,0.012271554,0.0016557858,557.2064,550.36865,139.75034,41.166775,87.589676,89.12662,0.9226145,6.8377886,41.72361
417.1666,0.012409393,0.0016947595,567.4304,560.389,142.27263,40.780136,89.37989,91.145676,0.9616582,7.041467,41.324314
424.70627,0.012545991,0.0017340598,577.7688,570.52014,144.82457,40.381508,91.19441,93.19189,1.0018858,7.2486825,40.913307
432.32617,0.012681293,0.001773652,588.2218,580.7624,147.4061,39.97121,93.03344,95.26451,1.0433007,7.459413,40.49092
440.02698,0.012815256,0.0018135133,598.79034,591.1167,150.01772,39.549564,94.89728,97.36321,1.0859143,7.673652,40.057453
447.8089,0.012947824,0.0018536147,609.4744,601.58307,152.65909,39.116844,96.786156,99.48753,1.1297308,7.8913674,39.613186
455.6723,0.013078953,0.0018939197,620.27496,612.16254,155.3308,38.67335,98.700264,101.63673,1.1747509,8.112548,39.15841
463.61707,0.013208595,0.0019343938,631.19196,622.8548,158.03294,38.21966,100.639694,103.80984,1.2209738,8.337159,38.69369
471.64426,0.013336708,0.0019750018,642.22644,633.6612,160.76549,37.75581,102.60485,106.00658,1.2683983,8.565186,38.21906
479.75348,0.013463248,0.002015699,653.3785,644.5819,163.52913,37.282448,104.59574,108.225525,1.3170143,8.7965975,37.73516
487.9457,0.013588173,0.002056454,664.64886,655.6175,166.32349,36.79982,106.61275,110.46625,1.3668199,9.0313635,37.242245
496.2211,0.013711444,0.0020972288,676.0381,666.76855,169.14911,36.308296,108.656136,112.727875,1.4178065,9.269458,36.740654
504.57965,0.013833022,0.0021379793,687.5464,678.0355,172.0063,35.808273,110.72578,115.00941,1.46996,9.510844,36.2308
513.02216,0.013952869,0.002178661,699.17474,689.4193,174.8951,35.300083,112.82235,117.30989,1.5232648,9.755493,35.71301
521.5485,0.014070952,0.002219249,710.92285,700.9195,177.81544,34.784157,114.94572,119.628685,1.5777149,10.003362,35.18769
530.15936,0.01418724,0.0022596857,722.7916,712.53723,180.76772,34.260815,117.0963,121.96453,1.6332818,10.254418,34.655178
538.855,0.014301693,0.0022999353,734.7817,724.273,183.75221,33.7306,119.27421,124.31637,1.6899503,10.508621,34.11599
547.6382,0.014414287,0.0023401007,746.89307,736.1271,186.76628,33.19285,121.47962,126.68829,1.7478049,10.76593,33.569477
556.5248,0.0145249935,0.0023808985,759.1258,748.0995,189.79352,32.643555,123.712425,129.10446,1.8074014,11.026297,33.011623
565.49524,0.014633783,0.0024213314,771.478,760.1883,192.8524,32.088657,125.97157,131.53206,1.868004,11.289641,32.448357
574.55023,0.014740616,0.0024613552,783.94995,772.39404,195.94269,31.528576,128.25743,133.96994,1.9295793,11.555905,31.880095
583.6902,0.014845459,0.0025009336,796.5429,784.71783,199.06514,30.963675,130.57,136.4172,1.9921008,11.825046,31.307201
592.9156,0.014948291,0.0025400245,809.25696,797.1599,202.21945,30.394278,132.91005,138.87296,2.0555322,12.097007,30.729992
602.2268,0.015049085,0.0025785912,822.0925,809.72076,205.40598,29.820904,135.27756,141.33586,2.1198404,12.37174,30.148983
611.6431,0.01514782,0.0026224176,835.0503,822.4011,208.60129,29.209988,137.664,144.00204,2.1898506,12.649192,29.53061
621.152,0.015244487,0.0026678336,848.12506,835.19586,211.81566,28.583054,140.07053,146.74863,2.2626567,12.929231,28.896389
630.7412,0.0153389815,0.002712355,861.3144,848.1028,215.06117,27.95462,142.50005,149.49205,2.3361905,13.211686,28.260826
640.4128,0.01543122,0.002756021,874.61926,861.12274,218.33675,27.324602,144.95407,152.234,2.410469,13.496442,27.623848
650.17,0.015521136,0.0027988502,888.04114,874.25775,221.64084,26.693007,147.4342,154.9755,2.4854941,13.783408,26.985447
660.01025,0.015608698,0.0028406805,901.58093,887.50836,224.977,26.06109,149.93932,157.71089,2.561103,14.072504,26.346882
669.9347,0.015693882,0.0028814678,915.23956,900.8759,228.34529,25.429102,152.4696,160.43922,2.6372335,14.363663,25.708393
679.9444,0.015776683,0.002921181,929.0182,914.3614,231.74602,24.797382,155.02585,163.15953,2.7138302,14.656825,25.070326
690.03955,0.015857097,0.0029598186,942.9166,927.9647,235.17853,24.166239,157.60852,165.87144,2.7908618,14.9519205,24.432976
700.224,0.015935142,0.0029998021,956.937,941.6882,238.63931,23.521969,160.21873,168.65926,2.8706217,15.248927,23.78264
710.4968,0.016010819,0.0030417033,971.07776,955.5301,242.12683,22.861586,162.85634,171.54344,2.9537303,15.54775,23.116331
720.8564,0.016084112,0.0030822614,985.33966,969.4914,245.64682,22.203775,165.52069,174.41153,3.0370748,15.848314,22.452728
731.303,0.01615498,0.00312142,999.723,983.57245,249.19939,21.548986,168.21198,177.26157,3.1205554,16.150505,21.792278
741.8371,0.016223395,0.0031591316,1014.22845,997.77423,252.78511,20.897556,170.93085,180.09203,3.204081,16.45423,21.135317
752.459,0.016289355,0.0031953652,1028.8566,1012.09717,256.40414,20.249886,173.67752,182.90137,3.2875726,16.75941,20.48224
763.17053,0.01635287,0.0032300835,1043.6085,1026.5425,260.05627,19.606344,176.45247,185.6881,3.3709428,17.065994,19.833416
773.9705,0.016413955,0.0032632572,1058.4843,1041.1104,263.74246,18.967173,179.25587,188.45113,3.4541063,17.373913,19.18908
784.86053,0.01647264,0.0032948626,1073.4849,1055.8016,267.46243,18.332739,182.08826,191.18903,3.536985,17.683128,18.5496
795.84094,0.016528951,0.0033248758,1088.6104,1070.6167,271.21616,17.703274,184.95001,193.9007,3.6194942,17.993587,17.915205
806.9115,0.016582914,0.0033533094,1103.8613,1085.556,275.00427,17.078999,187.84122,196.58577,3.7015884,18.305237,17.286112
818.07324,0.01663457,0.0033800942,1119.238,1100.62,278.82654,16.460281,190.76215,199.24184,3.7831302,18.618044,16.662683
829.3253,0.016683947,0.0034052525,1134.7401,1115.8083,282.68326,15.847353,193.71289,201.86847,3.8640766,18.931946,16.045153
840.6697,0.01673108,0.0034287705,1150.3696,1131.1227,286.57462,15.24036,196.69415,204.46498,3.944353,19.246925,15.433664
852.1057,0.016776003,0.0034506295,1166.1254,1146.5625,290.50037,14.6396475,199.7058,207.02971,4.0238667,19.562922,14.828555
863.63416,0.016818749,0.003470833,1182.008,1162.1282,294.46045,14.045383,202.7483,209.56203,4.1025524,19.879896,14.229997
875.254,0.016859354,0.0034893677,1198.0183,1177.8204,298.45657,13.457766,205.82138,212.06087,4.180326,20.197813,13.638181
886.9668,0.016897853,0.0035062328,1214.1553,1193.6387,302.48666,12.876996,208.92569,214.52531,4.2571115,20.516619,13.0533085
898.77203,0.01693428,0.0035214263,1230.4207,1209.5844,306.5529,12.303353,212.06116,216.95409,4.3328357,20.836288,12.4756565
910.6695,0.016968668,0.0035349652,1246.8126,1225.656,310.65378,11.736922,215.22783,219.3469,4.4074397,21.156752,11.905308
922.66003,0.01700105,0.0035468338,1263.3329,1241.855,314.79034,11.177957,218.42606,221.7023,4.480832,21.477985,11.342512
934.74274,0.017031457,0.0035570562,1279.9805,1258.1805,318.9624,10.626576,221.6556,224.01993,4.552963,21.799934,10.787392
946.9184,0.017059922,0.0035656414,1296.7563,1274.6337,323.17038,10.082939,224.91692,226.299,4.623768,22.122562,10.240098
959.18774,0.017086484,0.003572596,1313.6606,1291.2148,327.41412,9.547164,228.21036,228.53879,4.6931787,22.44584,9.70075
971.5497,0.017111173,0.0035779169,1330.6929,1307.9232,331.6938,9.019496,231.53552,230.73792,4.7611084,22.769716,9.169589
984.0055,0.017134022,0.0035816666,1347.8535,1324.7594,336.00916,8.49983,234.89307,232.89742,4.8275623,23.094152,8.646512
996.5529,0.017155068,0.0035838282,1365.1414,1341.7222,340.3607,7.988501,238.28241,235.01521,4.8924317,23.419092,8.131846
1009.19434,0.017174346,0.0035844168,1382.5579,1358.8132,344.74838,7.4855742,241.70386,237.09084,4.9556637,23.744526,7.6256604
1021.92834,0.017191885,0.0035834755,1400.1025,1376.032,349.17273,6.991037,245.15779,239.12463,5.017233,24.0704,7.127937
1034.7554,0.017207723,0.003581027,1417.7754,1393.3787,353.6335,6.5050225,248.64392,241.11588,5.077092,24.396687,6.63881
1047.6748,0.01722189,0.0035770827,1435.5759,1410.8525,358.13098,6.0276885,252.1625,243.0635,5.135174,24.723331,6.1584344
1060.687,0.017234424,0.003571679,1453.5046,1428.4541,362.6652,5.559,255.71344,244.9678,5.1914515,25.050316,5.6867723
1073.7925,0.01724536,0.0035648386,1471.5614,1446.1837,367.2359,5.099047,259.29706,246.82826,5.245878,25.377604,5.223915
1086.9902,0.017254723,0.0035566054,1489.7457,1464.0406,371.84335,4.64784,262.91333,248.64487,5.2984376,25.705149,4.769869
1100.2808,0.017262556,0.0035469932,1508.0586,1482.0258,376.4882,4.2054796,266.56204,250.41682,5.349074,26.032946,4.3247333
1113.6635,0.017268896,0.0035360572,1526.4984,1500.1375,381.16946,3.7718534,270.2436,252.14507,5.3977857,26.36094,3.8883955
1127.1377,0.01727377,0.0035238292,1545.0657,1518.3765,385.88843,3.347097,273.95752,253.82874,5.444547,26.68911,3.4609895
1140.7047,0.017277215,0.003510318,1563.7607,1536.7434,390.64426,2.9312258,277.7045,255.46747,5.489298,27.017431,3.0425286
1154.3633,0.017279262,0.0034955854,1582.583,1555.2372,395.43753,2.5241923,281.48413,257.06165,5.532054,27.345867,2.6329644
1168.1145,0.017279943,0.0034796486,1601.5334,1573.8589,400.2679,2.1260471,285.29657,258.61084,5.5727735,27.674406,2.2323458
1181.9568,0.017279293,0.003462558,1620.6107,1592.6077,405.13644,1.7367166,289.14175,260.1155,5.6114583,28.00301,1.8405985
1195.8907,0.017277347,0.0034443652,1639.814,1611.4823,410.04086,1.3561292,293.01987,261.57614,5.6481175,28.331633,1.4576489
1209.9156,0.017274136,0.003425074,1659.1443,1630.4841,414.9839,0.98443615,296.93073,262.99155,5.6826925,28.660284,1.0836475
1224.0309,0.017269691,0.0034047475,1678.6012,1649.6122,419.9647,0.62148565,300.87408,264.3626,5.715213,28.988924,0.71844125
1238.2328,0.017264048,0.0033833128,1698.1843,1668.8668,424.98767,0.26791736,304.8514,265.68442,5.7454886,29.317533,0.36266842
1252.6824,0.017257238,0.003348967,1717.8942,1688.2482,429.9118,0.0,308.9259,266.3777,5.753171,29.646107,0.09259661
1267.244,0.017249288,0.0032741965,1737.7219,1707.7476,434.9119,0.0,312.9449,265.04916,5.6896434,29.974464,0.0904912
1281.8512,0.017240437,0.0032010295,1757.6833,1727.3801,439.99963,0.0,317.0095,263.7271,5.626396,30.30323,0.08843359
1296.5571,0.017231492,0.003129455,1777.7698,1747.1361,445.11118,0.0,321.1261,262.41183,5.5634503,30.633625,0.086422846
1311.3486,0.01722299,0.0030594177,1797.9739,1767.0074,450.25278,0.0,325.27042,261.103,5.5007534,30.966484,0.08445772
1326.2262,0.017215231,0.0029908943,1818.2942,1786.9917,455.42096,0.0,329.44327,259.80072,5.438326,31.302353,0.08253733
1341.1893,0.017208394,0.0029238586,1838.7312,1807.0897,460.61667,0.0,333.64484,258.50494,5.37619,31.641613,0.080660604
1356.2377,0.01720254,0.0028582783,1859.2837,1827.2993,465.83865,0.0,337.87512,257.21564,5.31435,31.984402,0.07882659
1371.3717,0.017197674,0.0027941125,1879.9514,1847.6207,471.08643,0.0,342.13434,255.93274,5.252796,32.330795,0.07703425
1386.5912,0.017193764,0.0027313381,1900.7355,1868.0547,476.36115,0.0,346.4225,254.65625,5.1915517,32.680798,0.07528265
1401.8951,0.017190753,0.0026699363,1921.6335,1888.5992,481.6615,0.0,350.73938,253.38615,5.130639,33.034325,0.073570944
1417.284,0.017188566,0.0026098613,1942.6454,1909.254,486.98715,0.0,355.08478,252.12239,5.0700345,33.39129,0.07189812
1432.7561,0.01718712,0.0025510928,1963.7719,1930.0203,492.3404,0.0,359.45856,250.8649,5.009764,33.75158,0.070263304
1448.3105,0.01718634,0.0024936064,1985.0101,1950.8951,497.71973,0.0,363.86008,249.61372,4.949834,34.11506,0.06866569
1463.9485,0.017186144,0.0024373673,2006.3623,1971.8805,503.12582,0.0,368.2897,248.36877,4.890242,34.48163,0.067104384
1479.6686,0.017186467,0.0023823571,2027.8265,1992.9753,508.55878,0.0,372.7475,247.12999,4.831007,34.851173,0.06557857
1495.4707,0.017187241,0.0023285467,2049.4023,2014.179,514.0179,0.0,377.2327,245.89742,4.772129,35.22357,0.0640875
1511.3533,0.017188398,0.002275911,2071.0898,2035.491,519.505,0.0,381.7454,244.67102,4.7136154,35.598713,0.06263029
