con,Omega,Theta,ygross,ynet,inv,Eind,carbontax,Abatement,Dam,Emissions
72.50191,0.0028556,0.07410616,105.17594,104.8756,24.601776,0.0,550.0,7.794185,0.3003404,2.6000004
74.58666,0.0031179856,0.072623625,108.22586,107.88842,25.46651,0.0,547.25684,7.859754,0.33744666,2.5408828
76.75965,0.0032952905,0.071169734,111.38762,111.02056,26.359604,0.0,544.5275,7.927427,0.36705455,2.4831097
79.00955,0.003408133,0.06974379,114.679276,114.28844,27.307966,0.0,541.8116,7.9981675,0.39084223,2.4266498
81.347145,0.0034739124,0.068345435,118.10605,117.695755,28.30464,0.0,539.1093,8.072009,0.4102901,2.371474
83.79291,0.003506374,0.06697402,121.66949,121.24287,29.329834,0.0,536.4205,8.148695,0.4266187,2.3175528
86.36095,0.0035159283,0.065629184,125.37123,124.93044,30.370413,0.0,533.7451,8.228011,0.44079626,2.2648573
89.0359,0.0035102412,0.06431042,129.20491,128.75139,31.435421,0.0,531.08307,8.309222,0.4535404,2.21336
91.818665,0.0034948238,0.06301711,133.16945,132.70404,32.52276,0.0,528.4342,8.391954,0.46540374,2.1630335
94.70662,0.0034735631,0.061748803,137.26251,136.78572,33.63276,0.0,525.79865,8.475796,0.47679,2.1138515
97.69622,0.0034491434,0.060505264,141.48096,140.99297,34.76593,0.0,523.1762,8.560343,0.48798808,2.065788
100.779686,0.0034233783,0.059285693,145.82126,145.32207,35.926865,0.0,520.5669,8.645115,0.49920133,2.018817
103.95798,0.0033974596,0.058089968,150.28036,149.76978,37.111683,0.0,517.9706,8.729781,0.5105714,1.9729145
107.22825,0.0033721428,0.056917313,154.85477,154.33257,38.320137,0.0,515.3871,8.813918,0.52219236,1.9280552
110.58777,0.0033478772,0.055767637,159.54106,159.00693,39.551716,0.0,512.81665,8.897227,0.5341239,1.8842158
114.0343,0.0033249045,0.05464019,164.33636,163.78996,40.806152,0.0,510.25897,8.97937,0.54640275,1.8413734
117.56578,0.003303329,0.053534854,169.23804,168.67897,42.082993,0.0,507.71402,9.060133,0.55904883,1.799505
121.17804,0.0032831645,0.052450925,174.24376,173.67169,43.38442,0.0,505.18176,9.139246,0.57207096,1.7585889
124.87485,0.0032643669,0.051388297,179.35487,178.76938,44.707867,0.0,502.66214,9.2167425,0.5854801,1.718603
128.65454,0.0032468606,0.050346285,184.5693,183.97003,46.05329,0.0,500.15515,9.292378,0.5992707,1.6795262
132.51578,0.003230552,0.04932468,189.88533,189.27188,47.420338,0.0,497.66055,9.366034,0.61343443,1.641338
136.45732,0.0032153395,0.04832311,195.30142,194.67346,48.80891,0.0,495.1785,9.4375725,0.6279604,1.604018
140.4786,0.0032011233,0.0473411,200.81673,200.17389,50.218834,0.0,492.70874,9.506885,0.64283913,1.5675465
144.57881,0.0031878054,0.046378378,206.43024,205.77216,51.649982,0.0,490.2514,9.573899,0.6580594,1.5319042
148.75748,0.0031752954,0.04543441,212.14128,211.46767,53.102287,0.0,487.80627,9.6385145,0.6736113,1.4970726
153.01427,0.0031635102,0.044509087,217.9496,217.26012,54.575768,0.0,485.37332,9.700737,0.6894858,1.463033
157.34909,0.003152375,0.043601822,223.85483,223.14917,56.070377,0.0,482.95248,9.760479,0.70567435,1.4297671
161.76189,0.0031418228,0.042712513,229.85701,229.13484,57.586037,0.0,480.5438,9.81777,0.72217005,1.3972578
166.2527,0.0031317954,0.041840572,235.95616,235.2172,59.122887,0.0,478.147,9.872541,0.73896646,1.3654873
170.82164,0.0031222394,0.04098584,242.15231,241.39627,60.680798,0.0,475.76218,9.924816,0.75605756,1.3344394
175.4688,0.0031131094,0.040147923,248.4457,247.67224,62.25993,0.0,473.38937,9.974579,0.77343863,1.3040975
180.19453,0.0031043645,0.039326556,254.83649,254.04538,63.86011,0.0,471.02832,10.021841,0.7911054,1.2744458
184.99919,0.0030959712,0.038521364,261.3253,260.5162,65.481575,0.0,468.67902,10.066606,0.80905557,1.2454677
189.88301,0.0030878985,0.03773205,267.91232,267.08505,67.124374,0.0,466.3415,10.108882,0.8272861,1.2171489
194.84653,0.0030801191,0.036958374,274.5982,273.7524,68.78845,0.0,464.01566,10.148704,0.84579515,1.189474
199.89027,0.0030726108,0.03619996,281.3833,280.5187,70.47367,0.0,461.7013,10.186066,0.86458135,1.1624283
205.01433,0.0030653533,0.035456534,288.26816,287.38452,72.18056,0.0,459.39856,10.22099,0.8836437,1.1359975
210.21939,0.003058329,0.034727883,295.25327,294.35028,73.90874,0.0,457.10733,10.253521,0.90298164,1.1101677
215.506,0.003051523,0.03401364,302.3391,301.4165,75.65823,0.0,454.8275,10.283654,0.9225947,1.0849252
220.86647,0.0030449207,0.033313546,309.52643,308.58395,77.437454,0.0,452.55902,10.311424,0.9424835,1.0602567
226.2783,0.0030385104,0.032627333,316.81412,315.85147,79.26779,0.0,450.30185,10.3368,0.96264297,1.036149
231.7652,0.0030322827,0.031954784,324.1972,323.21417,81.120705,0.0,448.05597,10.359652,0.9830575,1.0125896
237.32837,0.0030262272,0.031295594,331.67712,330.6734,82.99639,0.0,445.82132,10.380033,1.0037303,0.9895659
242.96864,0.0030203343,0.030649554,339.25507,338.2304,84.895164,0.0,443.59775,10.398017,1.0246637,0.9670655
248.68721,0.0030145987,0.03001631,346.9324,345.88654,86.81709,0.0,441.38525,10.4136305,1.045862,0.9450767
254.48491,0.0030090127,0.029395726,354.7101,353.64282,88.76233,0.0,439.1839,10.426962,1.0673273,0.92358804
260.36237,0.003003569,0.028787497,362.5892,361.50012,90.73107,0.0,436.99344,10.438035,1.0890617,0.9025879
266.32077,0.0029982633,0.02819139,370.57068,369.4596,92.72328,0.0,434.8139,10.446902,1.1110685,0.8820653
272.3605,0.00299309,0.027607234,378.65533,377.52197,94.7391,0.0,432.64526,10.453626,1.1333495,0.8620093
278.48218,0.0029880449,0.02703469,386.84387,385.688,96.77886,0.0,430.48746,10.458204,1.1559069,0.8424093
284.6868,0.0029831226,0.02647363,395.13748,393.95874,98.842476,0.0,428.34033,10.460724,1.1787436,0.823255
290.9747,0.00297832,0.025923794,403.5365,402.33463,100.929924,0.0,426.20395,10.461197,1.2018609,0.80453616
297.3462,0.0029736322,0.025385015,412.0417,410.8164,103.04164,0.0,424.07834,10.459684,1.2252604,0.78624314
303.80264,0.0029690554,0.024856977,420.6538,419.40488,105.177086,0.0,421.96323,10.4561825,1.2489445,0.76836574
310.3439,0.0029645865,0.024339572,429.37357,428.10065,107.336975,0.0,419.85864,10.450769,1.272915,0.7508949
316.97095,0.0029602225,0.023832502,438.20166,436.90448,109.52097,0.0,417.76456,10.443441,1.2971743,0.73382133
323.68387,0.0029559606,0.02333566,447.1385,445.81677,111.72945,0.0,415.68094,10.434272,1.3217237,0.7171359
330.48325,0.0029517969,0.022848805,456.1846,454.83804,113.96232,0.0,413.60776,10.423273,1.3465642,0.70083004
337.37003,0.0029477288,0.022371741,465.3409,463.9692,116.219345,0.0,411.5449,10.410485,1.3716987,0.68489486
344.34384,0.0029437542,0.021904316,474.6077,473.21054,118.50142,0.0,409.49225,10.395957,1.3971285,0.669322
351.4058,0.0029398699,0.021446273,483.98544,482.56262,120.80766,0.0,407.4499,10.379684,1.4228543,0.6541032
358.55624,0.0029360729,0.020997463,493.47504,492.02615,123.138565,0.0,405.41776,10.361724,1.4488786,0.6392305
365.7955,0.0029323606,0.020557748,503.07672,501.60147,125.49421,0.0,403.3957,10.342125,1.4752023,0.62469596
373.12393,0.0029287315,0.02012691,512.7911,511.28928,127.87463,0.0,401.38373,10.320901,1.5018275,0.61049193
380.54175,0.002925183,0.01970475,522.6184,521.0896,130.27989,0.0,399.38184,10.298064,1.5287544,0.59661067
387.98895,0.0029217126,0.01929116,532.5596,531.0036,132.77098,0.0,397.38986,10.273692,1.555986,0.58304524
395.49762,0.002918317,0.018885948,542.60913,541.02563,135.3102,0.0,395.4079,10.247688,1.5835056,0.56978816
403.08847,0.0029149957,0.01848894,552.76636,551.155,137.8763,0.0,393.43576,10.220064,1.6113117,0.5568326
410.7627,0.002911746,0.018099988,563.03265,561.39325,140.46936,0.0,391.47354,10.190885,1.6394082,0.5441719
418.52173,0.0029085663,0.017718924,573.4093,571.7415,143.0892,0.0,389.52103,10.160196,1.667799,0.5317987
426.25766,0.0029054545,0.017345605,583.89716,582.2007,145.84436,0.0,387.5783,10.12805,1.6964866,0.5197067
434.10367,0.002902408,0.016979866,594.5242,592.79865,148.6293,0.0,385.64514,10.094941,1.7255516,0.5078899
442.05524,0.0028994249,0.016621575,605.2857,603.5307,151.44383,0.0,383.7218,10.0608015,1.7549803,0.49634153
450.10986,0.0028965045,0.016270546,616.17957,614.39484,154.28845,0.0,381.8079,10.0255785,1.7847668,0.48505595
458.2649,0.0028936437,0.015926728,627.2027,625.3878,157.16255,0.0,379.90366,9.989286,1.814901,0.47402695
466.51917,0.002890842,0.015589868,638.3538,636.5085,160.06625,0.0,378.00888,9.951851,1.8453801,0.46324873
474.8708,0.0028880965,0.01525991,649.63153,647.7553,162.99986,0.0,376.1236,9.913319,1.8761984,0.45271567
483.3191,0.0028854054,0.014936692,661.03455,659.12714,165.96289,0.0,374.24768,9.87367,1.9073526,0.44242203
491.86304,0.0028827682,0.01462008,672.56244,670.6236,168.95598,0.0,372.3811,9.832916,1.9388415,0.43236247
500.50226,0.0028801826,0.0143099455,684.21454,682.2439,171.97876,0.0,370.52383,9.791073,1.9706628,0.42253155
509.23605,0.0028776468,0.014006136,695.99054,693.9877,175.03154,0.0,368.67575,9.748138,2.0028148,0.4129241
518.0639,0.0028751595,0.0137085775,707.88965,705.8544,178.11424,0.0,366.83698,9.70416,2.0352957,0.40353513
526.9861,0.0028727208,0.0134171,719.9122,717.8441,181.22661,0.0,365.00735,9.659134,2.068107,0.39435962
536.0022,0.0028703273,0.013131624,732.058,729.9568,184.3691,0.0,363.18686,9.6131115,2.1012464,0.3853927
545.1123,0.0028679774,0.0128519945,744.32715,742.1923,187.54141,0.0,361.37546,9.566088,2.1347134,0.3766298
554.31604,0.002865671,0.012578112,756.7193,754.5508,190.744,0.0,359.57306,9.518101,2.1685085,0.36806604
563.6138,0.0028634053,0.012309865,769.23456,767.0319,193.97615,0.0,357.77966,9.469173,2.2026303,0.35969707
573.00494,0.00286118,0.0120471455,781.87317,779.6361,197.23878,0.0,355.99527,9.41934,2.2370799,0.35151836
582.49036,0.0028589948,0.011789834,794.6354,792.36346,200.53127,0.0,354.21964,9.368619,2.2718585,0.3435256
592.07,0.0028568467,0.0115378145,807.5212,805.2143,203.85391,0.0,352.45297,9.317031,2.3069644,0.33571473
601.74304,0.0028547342,0.011291017,820.5305,818.1881,207.20695,0.0,350.6951,9.264625,2.3423967,0.3280814
611.5082,0.0028526573,0.0110493,833.6639,831.28577,210.59244,0.0,348.946,9.211403,2.3781574,0.32062155
621.3551,0.0028506143,0.010812577,846.9209,844.50665,214.02032,0.0,347.20557,9.157397,2.414245,0.31333125
631.29236,0.0028486038,0.010580756,860.2986,857.84784,217.47885,0.0,345.47385,9.10261,2.4506497,0.30620688
641.3202,0.0028466247,0.010353737,873.7972,871.30975,220.96825,0.0,343.75082,9.047065,2.4873724,0.29924446
651.43976,0.0028446766,0.010131402,887.41754,884.8931,224.48816,0.0,342.0363,8.990785,2.524416,0.2924403
661.6513,0.002842758,0.009913702,901.1607,898.5989,228.03917,0.0,340.3304,8.933839,2.5617816,0.28579083
671.95386,0.0028408687,0.009700501,915.02686,912.42737,231.6225,0.0,338.63303,8.876219,2.5994709,0.2792926
682.34985,0.0028390053,0.009491713,929.0175,926.38,235.23712,0.0,336.944,8.817967,2.6374855,0.27294213
692.83936,0.0028371692,0.009287285,943.1322,940.45636,238.88264,0.0,335.2635,8.759137,2.6758258,0.26673612
703.4241,0.0028353583,0.009087094,957.3725,954.6581,242.55891,0.0,333.5913,8.699734,2.7144942,0.26067114
714.10236,0.0028335718,0.008891075,971.7373,968.9838,246.26613,0.0,331.92758,8.639789,2.7534876,0.2547441
724.8758,0.002831808,0.0086991405,986.22754,983.4347,250.00389,0.0,330.272,8.579332,2.7928073,0.2489518
735.74347,0.0028300676,0.008511213,1000.8428,998.0103,253.77255,0.0,328.6248,8.518386,2.8324528,0.24329129
746.7061,0.0028283475,0.008327193,1015.5833,1012.71094,257.57178,0.0,326.98578,8.456959,2.8724227,0.23775938
757.7629,0.002826649,0.008147018,1030.449,1027.5364,261.40216,0.0,325.35492,8.395087,2.9127178,0.2323533
768.9148,0.0028249705,0.007970612,1045.4408,1042.4874,265.26334,0.0,323.73218,8.332803,2.9533396,0.22707012
780.1615,0.0028233107,0.007797884,1060.5576,1057.5635,269.15515,0.0,322.11758,8.270105,2.994284,0.22190705
791.5029,0.0028216697,0.0076287743,1075.8003,1072.7646,273.07788,0.0,320.51096,8.207037,3.035553,0.21686128
802.9393,0.0028200455,0.0074631968,1091.1683,1088.0912,277.03125,0.0,318.91235,8.143605,3.0771446,0.21193029
814.47046,0.0028184385,0.007301107,1106.6621,1103.5431,281.0154,0.0,317.32175,8.079858,3.119059,0.20711158
826.09576,0.0028168473,0.0071423952,1122.2815,1119.1201,285.03107,0.0,315.73904,8.015778,3.1612954,0.20240222
837.81635,0.0028152715,0.006987034,1138.0255,1134.8217,289.0763,0.0,314.16434,7.951422,3.2038505,0.1978001
849.63153,0.0028137094,0.0068349256,1153.896,1150.6494,293.1532,0.0,312.59738,7.886793,3.2467282,0.1933026
861.54175,0.0028121609,0.006686021,1169.8917,1166.6019,297.26025,0.0,311.0383,7.8219204,3.289924,0.1889073
873.54156,0.002810625,0.0065402547,1186.0131,1182.6798,301.40314,0.0,309.487,7.7568283,3.333438,0.18461207
885.6173,0.002809102,0.0063975486,1202.2612,1198.884,305.5968,0.0,307.94342,7.691524,3.3772743,0.1804144
897.7863,0.0028075895,0.0062578437,1218.6404,1215.219,309.82797,0.0,306.4075,7.6260605,3.421442,0.17631218
910.04724,0.0028060884,0.006121089,1235.1498,1231.6838,314.09732,0.0,304.87927,7.560462,3.4659395,0.17230324
922.4059,0.0028045983,0.005987226,1251.7869,1248.2761,318.39648,0.0,303.35867,7.494731,3.510759,0.16838548
934.8616,0.002803117,0.005856184,1268.552,1264.9962,322.7266,0.0,301.84564,7.4288745,3.5558999,0.16455674
947.4091,0.002801645,0.005727918,1285.4438,1281.8424,327.09103,0.0,300.34024,7.362916,3.6013575,0.16081521
960.0344,0.0028001813,0.005602369,1302.4629,1298.8158,331.5051,0.0,298.8423,7.296878,3.6471322,0.15715867
972.75806,0.0027987252,0.0054794713,1319.6117,1315.9185,335.9498,0.0,297.35178,7.2307744,3.6932304,0.15358528
985.5795,0.0027972774,0.0053591733,1336.8884,1333.1487,340.42453,0.0,295.8687,7.1646166,3.7396479,0.15009306
998.4975,0.002795837,0.0052414294,1354.2927,1350.5063,344.93024,0.0,294.393,7.0984297,3.7863817,0.14668027
1011.5102,0.0027944027,0.005126192,1371.8223,1367.9889,349.46616,0.0,292.92477,7.0322237,3.833424,0.14334513
1024.6185,0.0027929745,0.0050133946,1389.4786,1385.5979,354.0328,0.0,291.46375,6.9660044,3.8807783,0.14008576
1037.8219,0.0027915502,0.004902991,1407.261,1403.3325,358.63022,0.0,290.01004,6.899787,3.9284399,0.13690053
1051.1188,0.002790132,0.004794941,1425.168,1421.1915,363.25815,0.0,288.56363,6.8335967,3.976407,0.13378775
1064.5105,0.002788717,0.004689195,1443.1995,1439.1747,367.91565,0.0,287.12442,6.7674437,4.0246744,0.13074575
1077.9948,0.002787307,0.0045856987,1461.3553,1457.2822,372.60492,0.0,285.69235,6.7013354,4.073246,0.12777293
1091.5724,0.0027859006,0.0044844053,1479.6354,1475.5134,377.32416,0.0,284.26752,6.635285,4.1221175,0.1248677
1105.2433,0.0027844957,0.0043852776,1498.0393,1493.868,382.07382,0.0,282.8497,6.5693183,4.171284,0.122028455
1119.0072,0.0027830938,0.004288263,1516.5673,1512.3464,386.8541,0.0,281.43893,6.50344,4.2207494,0.11925384
1132.8628,0.0027816948,0.0041933185,1535.2175,1530.9469,391.66437,0.0,280.03522,6.4376564,4.270506,0.1165423
1146.8108,0.0027802975,0.004100418,1553.9904,1549.6698,396.5047,0.0,278.6386,6.37201,4.320555,0.11389247
1160.8438,0.002778901,0.0040094946,1572.8864,1568.5155,401.3827,0.0,277.2489,6.3064795,4.3708954,0.11130284
1174.9537,0.0027775047,0.0039205244,1591.8928,1587.4714,406.29395,0.0,275.86612,6.241055,4.42149,0.108772084
1189.1444,0.0027761096,0.0038334571,1611.0128,1606.5406,411.23746,0.0,274.4902,6.175749,4.472348,0.1062988
1203.4178,0.0027747138,0.0037482565,1630.2472,1625.7238,416.21222,0.0,273.12112,6.1105847,4.523469,0.10388178
1217.7736,0.0027733182,0.0036648896,1649.5962,1645.0211,421.2187,0.0,271.7589,6.045588,4.5748553,0.10151975
1232.2156,0.0027719226,0.0035833125,1669.0626,1664.436,426.25626,0.0,270.40353,5.9807725,4.626512,0.09921143
1246.7441,0.0027705263,0.0035034928,1688.6464,1683.9678,431.3239,0.0,269.05487,5.9161606,4.678439,0.09695557
1261.3593,0.0027691282,0.003425389,1708.3474,1703.617,436.42212,0.0,267.71292,5.851755,4.730633,0.09475104
1276.0621,0.0027677289,0.003348967,1728.1669,1723.3839,441.55026,0.0,266.3777,5.787574,4.7830973,0.09259661
1290.8506,0.002766327,0.0032741965,1748.103,1743.2672,446.70883,0.0,265.04916,5.723633,4.8358245,0.0904912
1305.7275,0.0027649237,0.0032010295,1768.1578,1763.269,451.8973,0.0,263.7271,5.6599255,4.8888216,0.08843359
1320.6915,0.0027635181,0.003129455,1788.3298,1783.388,457.11542,0.0,262.41183,5.5964985,4.9420824,0.086422846
1335.744,0.0027621095,0.0030594177,1808.6207,1803.625,462.36304,0.0,261.103,5.533326,4.995609,0.08445772
1350.8833,0.002760698,0.0029908943,1829.0281,1823.9785,467.63998,0.0,259.80072,5.470429,5.049394,0.08253733
1366.1094,0.0027592827,0.0029238586,1849.5527,1844.4493,472.9469,0.0,258.50494,5.4078307,5.103439,0.080660604
1381.422,0.002757864,0.0028582783,1870.1929,1865.035,478.28232,0.0,257.21564,5.3455315,5.1577377,0.07882659
1396.8204,0.0027564424,0.0027941125,1890.9493,1885.7372,483.6478,0.0,255.93274,5.283525,5.2122936,0.07703425
1412.3073,0.0027550152,0.0027313381,1911.8228,1906.5557,489.04114,0.0,254.65625,5.221834,5.2671003,0.07528265
1427.8778,0.0027535842,0.0026699363,1932.8107,1927.4886,494.4646,0.0,253.38615,5.1604815,5.322157,0.073570944
1443.5354,0.0027521488,0.0026098613,1953.9133,1948.536,499.91534,0.0,252.12239,5.099443,5.3774605,0.07189812
1459.2775,0.0027507085,0.0025510928,1975.1312,1969.6981,505.3959,0.0,250.8649,5.038743,5.43301,0.070263304
1475.1049,0.0027492635,0.0024936064,1996.4625,1990.9739,510.90417,0.0,249.61372,4.978392,5.488802,0.06866569
1491.0176,0.0027478135,0.0024373673,2017.9082,2012.3633,516.4409,0.0,248.36877,4.918383,5.544835,0.067104384
1507.0142,0.0027463576,0.0023823571,2039.4666,2033.8657,522.00616,0.0,247.12999,4.858738,5.6011047,0.06557857
1523.095,0.0027448963,0.0023285467,2061.1382,2055.4807,527.5994,0.0,245.89742,4.7994566,5.657611,0.0640875
1539.2595,0.0027434293,0.002275911,2082.9219,2077.2075,533.2204,0.0,244.67102,4.740545,5.7143493,0.06263029
1555.5063,0.0027419564,0.0022244274,2104.8174,2099.046,538.8703,0.0,243.45068,4.682013,5.7713175,0.06120621
1571.8367,0.0027404774,0.00217407,2126.8232,2120.9949,544.5469,0.0,242.2365,4.6238627,5.8285108,0.05981458
1588.2496,0.002738992,0.0021248101,2148.9407,2143.055,550.2516,0.0,241.02832,4.566091,5.8859315,0.058454506
1604.744,0.0027374998,0.0020766328,2171.1675,2165.2239,555.9836,0.0,239.82622,4.508718,5.9435706,0.0571254
1621.3215,0.0027360015,0.0020295097,2193.5046,2187.5032,561.742,0.0,238.63002,4.4517393,6.001432,0.055826504
1637.9794,0.0027344956,0.0019834216,2215.951,2209.8914,567.529,0.0,237.43987,4.3951654,6.0595083,0.054557145
1654.7186,0.0027329826,0.0019383439,2238.5051,2232.3872,573.3417,0.0,236.25562,4.3389926,6.1177955,0.05331663
1671.537,0.0027314627,0.001894257,2261.1675,2254.9912,579.1826,0.0,235.07727,4.283232,6.176295,0.052104335
1688.4365,0.002729935,0.0018511389,2283.9375,2277.7026,585.04974,0.0,233.90482,4.2278857,6.235001,0.050919604
1705.4154,0.0027284003,0.0018089695,2306.8142,2300.5203,590.9433,0.0,232.73819,4.1729565,6.293912,0.049761795
1722.473,0.002726858,0.0017677286,2329.797,2323.444,596.864,0.0,231.5774,4.118449,6.353027,0.048630323
1739.61,0.0027253078,0.0017273996,2352.885,2346.473,602.8095,0.0,230.42236,4.064373,6.4123363,0.04752458
1756.824,0.0027237493,0.0016879576,2376.078,2369.6062,608.7822,0.0,229.27316,4.0107183,6.4718404,0.04644402
1774.1171,0.0027221835,0.0016493856,2399.3765,2392.8447,614.78094,0.0,228.12962,3.9574966,6.5315423,0.045387972
1791.4878,0.0027206088,0.0016116692,2422.7783,2416.187,620.8051,0.0,226.99182,3.9047174,6.5914326,0.044355944
1808.9337,0.0027190275,0.0015747835,2446.2822,2439.6309,626.8553,0.0,225.85965,3.8523648,6.6515083,0.043347377
1826.4574,0.0027174377,0.0015387142,2469.8906,2463.1787,632.93134,0.0,224.73318,3.8004558,6.711774,0.04236175
1844.0565,0.0027158377,0.0015034468,2493.5994,2486.8271,639.0317,0.0,223.6123,3.7489939,6.772211,0.041398562
1861.7305,0.0027142307,0.0014689587,2517.408,2510.5754,645.1569,0.0,222.49709,3.6979685,6.832826,0.040457286
1879.4797,0.0027126144,0.001435238,2541.319,2534.4255,651.3082,0.0,221.38739,3.6473978,6.893619,0.0395374
1897.3029,0.0027109894,0.0014022634,2565.3286,2558.374,657.4838,0.0,220.28323,3.5972667,6.9545784,0.038638424
1915.2012,0.002709356,0.0013700217,2589.439,2582.4236,663.68427,0.0,219.18459,3.5475879,7.0157123,0.037759893
